# OpenSignals Text File Format
# {"CC:78:AB:5E:9D:17":{"sensor":["EMGBITREV"],"device name":"CC:78:AB:5E:9D:17","column":["nSeq","I1","I2","O1","O2","A1"],"sync interval":2,"time":"12:47:49","comments":"","device connection":"BLECC:78:AB:5E:9D:17","channels":[1],"date":"2022-05-11","mode":0,"digital IO":[0,0,1,1],"firmware version":0,"device":"bitalino_rev","position":0,"sampling rate":100,"label":["A1"],"resolution":[10],"special":[{}]}}
# EndOfHeader
0	0	0	0	0	510
1	0	0	0	0	530
2	0	0	0	0	517
3	0	0	0	0	506
4	0	0	0	0	516
5	0	0	0	0	520
6	0	0	0	0	508
7	0	0	0	0	517
8	0	0	0	0	502
9	0	0	0	0	524
10	0	0	0	0	512
11	0	0	0	0	511
12	0	0	0	0	526
13	0	0	0	0	509
14	0	0	0	0	521
15	0	0	0	0	503
0	0	0	0	0	535
1	0	0	0	0	508
2	0	0	0	0	519
3	0	0	0	0	525
4	0	0	0	0	524
5	0	0	0	0	509
6	0	0	0	0	517
7	0	0	0	0	527
8	0	0	0	0	498
9	0	0	0	0	537
10	0	0	0	0	511
11	0	0	0	0	510
12	0	0	0	0	513
13	0	0	0	0	508
14	0	0	0	0	512
15	0	0	0	0	515
0	0	0	0	0	513
1	0	0	0	0	514
2	0	0	0	0	508
3	0	0	0	0	514
4	0	0	0	0	513
5	0	0	0	0	509
6	0	0	0	0	511
7	0	0	0	0	513
8	0	0	0	0	512
9	0	0	0	0	513
10	0	0	0	0	513
11	0	0	0	0	506
12	0	0	0	0	519
13	0	0	0	0	504
14	0	0	0	0	517
15	0	0	0	0	495
0	0	0	0	0	520
1	0	0	0	0	508
2	0	0	0	0	522
3	0	0	0	0	515
4	0	0	0	0	516
5	0	0	0	0	516
6	0	0	0	0	493
7	0	0	0	0	531
8	0	0	0	0	516
9	0	0	0	0	529
10	0	0	0	0	516
11	0	0	0	0	515
12	0	0	0	0	532
13	0	0	0	0	511
14	0	0	0	0	512
15	0	0	0	0	532
0	0	0	0	0	517
1	0	0	0	0	521
2	0	0	0	0	521
3	0	0	0	0	510
4	0	0	0	0	526
5	0	0	0	0	513
6	0	0	0	0	508
7	0	0	0	0	521
8	0	0	0	0	521
9	0	0	0	0	513
10	0	0	0	0	508
11	0	0	0	0	516
12	0	0	0	0	508
13	0	0	0	0	508
14	0	0	0	0	517
15	0	0	0	0	521
0	0	0	0	0	524
1	0	0	0	0	513
2	0	0	0	0	507
3	0	0	0	0	511
4	0	0	0	0	514
5	0	0	0	0	514
6	0	0	0	0	512
7	0	0	0	0	513
8	0	0	0	0	508
9	0	0	0	0	519
10	0	0	0	0	518
11	0	0	0	0	520
12	0	0	0	0	505
13	0	0	0	0	519
14	0	0	0	0	504
15	0	0	0	0	548
0	0	0	0	0	521
1	0	0	0	0	510
2	0	0	0	0	516
3	0	0	0	0	498
4	0	0	0	0	515
5	0	0	0	0	515
6	0	0	0	0	547
7	0	0	0	0	504
8	0	0	0	0	520
9	0	0	0	0	509
10	0	0	0	0	515
11	0	0	0	0	513
12	0	0	0	0	510
13	0	0	0	0	512
14	0	0	0	0	526
15	0	0	0	0	495
0	0	0	0	0	505
1	0	0	0	0	515
2	0	0	0	0	521
3	0	0	0	0	505
4	0	0	0	0	511
5	0	0	0	0	511
6	0	0	0	0	520
7	0	0	0	0	496
8	0	0	0	0	538
9	0	0	0	0	501
10	0	0	0	0	528
11	0	0	0	0	522
12	0	0	0	0	509
13	0	0	0	0	528
14	0	0	0	0	503
15	0	0	0	0	511
0	0	0	0	0	494
1	0	0	0	0	518
2	0	0	0	0	518
3	0	0	0	0	548
4	0	0	0	0	500
5	0	0	0	0	551
6	0	0	0	0	505
7	0	0	0	0	457
8	0	0	0	0	487
9	0	0	0	0	600
10	0	0	0	0	537
11	0	0	0	0	461
12	0	0	0	0	688
13	0	0	0	0	512
14	0	0	0	0	486
15	0	0	0	0	690
0	0	0	0	0	499
1	0	0	0	0	510
2	0	0	0	0	455
3	0	0	0	0	548
4	0	0	0	0	524
5	0	0	0	0	472
6	0	0	0	0	444
7	0	0	0	0	590
8	0	0	0	0	473
9	0	0	0	0	643
10	0	0	0	0	434
11	0	0	0	0	496
12	0	0	0	0	531
13	0	0	0	0	471
14	0	0	0	0	570
15	0	0	0	0	414
0	0	0	0	0	509
1	0	0	0	0	515
2	0	0	0	0	564
3	0	0	0	0	563
4	0	0	0	0	520
5	0	0	0	0	484
6	0	0	0	0	608
7	0	0	0	0	398
8	0	0	0	0	508
9	0	0	0	0	356
10	0	0	0	0	681
11	0	0	0	0	335
12	0	0	0	0	540
13	0	0	0	0	576
14	0	0	0	0	423
15	0	0	0	0	492
0	0	0	0	0	440
1	0	0	0	0	534
2	0	0	0	0	411
3	0	0	0	0	619
4	0	0	0	0	434
5	0	0	0	0	739
6	0	0	0	0	398
7	0	0	0	0	430
8	0	0	0	0	489
9	0	0	0	0	453
10	0	0	0	0	636
11	0	0	0	0	398
12	0	0	0	0	423
13	0	0	0	0	349
14	0	0	0	0	536
15	0	0	0	0	556
0	0	0	0	0	567
1	0	0	0	0	534
2	0	0	0	0	547
3	0	0	0	0	489
4	0	0	0	0	636
5	0	0	0	0	473
6	0	0	0	0	424
7	0	0	0	0	679
8	0	0	0	0	597
9	0	0	0	0	451
10	0	0	0	0	614
11	0	0	0	0	477
12	0	0	0	0	585
13	0	0	0	0	521
14	0	0	0	0	593
15	0	0	0	0	445
0	0	0	0	0	572
1	0	0	0	0	549
2	0	0	0	0	529
3	0	0	0	0	548
4	0	0	0	0	388
5	0	0	0	0	421
6	0	0	0	0	573
7	0	0	0	0	498
8	0	0	0	0	542
9	0	0	0	0	506
10	0	0	0	0	523
11	0	0	0	0	569
12	0	0	0	0	477
13	0	0	0	0	536
14	0	0	0	0	456
15	0	0	0	0	498
0	0	0	0	0	483
1	0	0	0	0	543
2	0	0	0	0	506
3	0	0	0	0	444
4	0	0	0	0	531
5	0	0	0	0	568
6	0	0	0	0	507
7	0	0	0	0	655
8	0	0	0	0	471
9	0	0	0	0	581
10	0	0	0	0	398
11	0	0	0	0	547
12	0	0	0	0	518
13	0	0	0	0	467
14	0	0	0	0	568
15	0	0	0	0	500
0	0	0	0	0	552
1	0	0	0	0	472
2	0	0	0	0	534
3	0	0	0	0	528
4	0	0	0	0	524
5	0	0	0	0	352
6	0	0	0	0	568
7	0	0	0	0	505
8	0	0	0	0	453
9	0	0	0	0	581
10	0	0	0	0	566
11	0	0	0	0	403
12	0	0	0	0	618
13	0	0	0	0	492
14	0	0	0	0	522
15	0	0	0	0	466
0	0	0	0	0	605
1	0	0	0	0	463
2	0	0	0	0	438
3	0	0	0	0	552
4	0	0	0	0	557
5	0	0	0	0	580
6	0	0	0	0	500
7	0	0	0	0	524
8	0	0	0	0	515
9	0	0	0	0	526
10	0	0	0	0	478
11	0	0	0	0	512
12	0	0	0	0	541
13	0	0	0	0	531
14	0	0	0	0	425
15	0	0	0	0	523
0	0	0	0	0	502
1	0	0	0	0	549
2	0	0	0	0	623
3	0	0	0	0	442
4	0	0	0	0	509
5	0	0	0	0	494
6	0	0	0	0	522
7	0	0	0	0	634
8	0	0	0	0	470
9	0	0	0	0	485
10	0	0	0	0	482
11	0	0	0	0	520
12	0	0	0	0	527
13	0	0	0	0	521
14	0	0	0	0	543
15	0	0	0	0	500
0	0	0	0	0	507
1	0	0	0	0	492
2	0	0	0	0	503
3	0	0	0	0	521
4	0	0	0	0	514
5	0	0	0	0	523
6	0	0	0	0	596
7	0	0	0	0	513
8	0	0	0	0	497
9	0	0	0	0	565
10	0	0	0	0	489
11	0	0	0	0	554
12	0	0	0	0	519
13	0	0	0	0	499
14	0	0	0	0	525
15	0	0	0	0	521
0	0	0	0	0	497
1	0	0	0	0	499
2	0	0	0	0	519
3	0	0	0	0	484
4	0	0	0	0	552
5	0	0	0	0	519
6	0	0	0	0	513
7	0	0	0	0	530
8	0	0	0	0	506
9	0	0	0	0	496
10	0	0	0	0	505
11	0	0	0	0	513
12	0	0	0	0	518
13	0	0	0	0	479
14	0	0	0	0	541
15	0	0	0	0	506
0	0	0	0	0	507
1	0	0	0	0	500
2	0	0	0	0	519
3	0	0	0	0	496
4	0	0	0	0	526
5	0	0	0	0	516
6	0	0	0	0	522
7	0	0	0	0	543
8	0	0	0	0	491
9	0	0	0	0	502
10	0	0	0	0	507
11	0	0	0	0	548
12	0	0	0	0	513
13	0	0	0	0	512
14	0	0	0	0	509
15	0	0	0	0	573
0	0	0	0	0	492
1	0	0	0	0	539
2	0	0	0	0	494
3	0	0	0	0	529
4	0	0	0	0	502
5	0	0	0	0	480
6	0	0	0	0	586
7	0	0	0	0	499
8	0	0	0	0	515
9	0	0	0	0	501
10	0	0	0	0	538
11	0	0	0	0	520
12	0	0	0	0	518
13	0	0	0	0	487
14	0	0	0	0	513
15	0	0	0	0	519
0	0	0	0	0	523
1	0	0	0	0	512
2	0	0	0	0	512
3	0	0	0	0	509
4	0	0	0	0	516
5	0	0	0	0	529
6	0	0	0	0	513
7	0	0	0	0	496
8	0	0	0	0	541
9	0	0	0	0	519
10	0	0	0	0	515
11	0	0	0	0	506
12	0	0	0	0	516
13	0	0	0	0	512
14	0	0	0	0	512
15	0	0	0	0	519
0	0	0	0	0	490
1	0	0	0	0	551
2	0	0	0	0	508
3	0	0	0	0	488
4	0	0	0	0	556
5	0	0	0	0	496
6	0	0	0	0	512
7	0	0	0	0	524
8	0	0	0	0	519
9	0	0	0	0	502
10	0	0	0	0	526
11	0	0	0	0	505
12	0	0	0	0	536
13	0	0	0	0	496
14	0	0	0	0	492
15	0	0	0	0	531
0	0	0	0	0	525
1	0	0	0	0	520
2	0	0	0	0	523
3	0	0	0	0	524
4	0	0	0	0	512
5	0	0	0	0	519
6	0	0	0	0	509
7	0	0	0	0	513
8	0	0	0	0	521
9	0	0	0	0	512
10	0	0	0	0	511
11	0	0	0	0	495
12	0	0	0	0	538
13	0	0	0	0	509
14	0	0	0	0	508
15	0	0	0	0	532
0	0	0	0	0	499
1	0	0	0	0	527
2	0	0	0	0	520
3	0	0	0	0	521
4	0	0	0	0	525
5	0	0	0	0	518
6	0	0	0	0	525
7	0	0	0	0	518
8	0	0	0	0	515
9	0	0	0	0	508
10	0	0	0	0	489
11	0	0	0	0	557
12	0	0	0	0	504
13	0	0	0	0	496
14	0	0	0	0	534
15	0	0	0	0	531
0	0	0	0	0	516
1	0	0	0	0	530
2	0	0	0	0	514
3	0	0	0	0	505
4	0	0	0	0	523
5	0	0	0	0	497
6	0	0	0	0	532
7	0	0	0	0	471
8	0	0	0	0	509
9	0	0	0	0	534
10	0	0	0	0	497
11	0	0	0	0	492
12	0	0	0	0	551
13	0	0	0	0	502
14	0	0	0	0	495
15	0	0	0	0	512
0	0	0	0	0	483
1	0	0	0	0	536
2	0	0	0	0	518
3	0	0	0	0	507
4	0	0	0	0	544
5	0	0	0	0	489
6	0	0	0	0	466
7	0	0	0	0	527
8	0	0	0	0	513
9	0	0	0	0	548
10	0	0	0	0	473
11	0	0	0	0	473
12	0	0	0	0	498
13	0	0	0	0	465
14	0	0	0	0	540
15	0	0	0	0	488
0	0	0	0	0	608
1	0	0	0	0	521
2	0	0	0	0	525
3	0	0	0	0	507
4	0	0	0	0	547
5	0	0	0	0	520
6	0	0	0	0	531
7	0	0	0	0	550
8	0	0	0	0	428
9	0	0	0	0	536
10	0	0	0	0	450
11	0	0	0	0	559
12	0	0	0	0	456
13	0	0	0	0	503
14	0	0	0	0	587
15	0	0	0	0	603
0	0	0	0	0	507
1	0	0	0	0	659
2	0	0	0	0	434
3	0	0	0	0	539
4	0	0	0	0	559
5	0	0	0	0	604
6	0	0	0	0	449
7	0	0	0	0	550
8	0	0	0	0	430
9	0	0	0	0	579
10	0	0	0	0	467
11	0	0	0	0	694
12	0	0	0	0	565
13	0	0	0	0	452
14	0	0	0	0	674
15	0	0	0	0	411
0	0	0	0	0	848
1	0	0	0	0	642
2	0	0	0	0	397
3	0	0	0	0	502
4	0	0	0	0	472
5	0	0	0	0	362
6	0	0	0	0	660
7	0	0	0	0	350
8	0	0	0	0	551
9	0	0	0	0	643
10	0	0	0	0	593
11	0	0	0	0	507
12	0	0	0	0	460
13	0	0	0	0	575
14	0	0	0	0	479
15	0	0	0	0	713
0	0	0	0	0	356
1	0	0	0	0	492
2	0	0	0	0	418
3	0	0	0	0	485
4	0	0	0	0	520
5	0	0	0	0	594
6	0	0	0	0	463
7	0	0	0	0	463
8	0	0	0	0	664
9	0	0	0	0	439
10	0	0	0	0	524
11	0	0	0	0	623
12	0	0	0	0	494
13	0	0	0	0	562
14	0	0	0	0	539
15	0	0	0	0	412
0	0	0	0	0	588
1	0	0	0	0	632
2	0	0	0	0	388
3	0	0	0	0	512
4	0	0	0	0	485
5	0	0	0	0	525
6	0	0	0	0	593
7	0	0	0	0	597
8	0	0	0	0	305
9	0	0	0	0	450
10	0	0	0	0	313
11	0	0	0	0	583
12	0	0	0	0	506
13	0	0	0	0	443
14	0	0	0	0	586
15	0	0	0	0	458
0	0	0	0	0	557
1	0	0	0	0	486
2	0	0	0	0	651
3	0	0	0	0	502
4	0	0	0	0	585
5	0	0	0	0	639
6	0	0	0	0	477
7	0	0	0	0	517
8	0	0	0	0	567
9	0	0	0	0	536
10	0	0	0	0	521
11	0	0	0	0	577
12	0	0	0	0	444
13	0	0	0	0	644
14	0	0	0	0	508
15	0	0	0	0	359
0	0	0	0	0	537
1	0	0	0	0	432
2	0	0	0	0	665
3	0	0	0	0	433
4	0	0	0	0	429
5	0	0	0	0	637
6	0	0	0	0	532
7	0	0	0	0	580
8	0	0	0	0	481
9	0	0	0	0	469
10	0	0	0	0	535
11	0	0	0	0	579
12	0	0	0	0	508
13	0	0	0	0	496
14	0	0	0	0	550
15	0	0	0	0	469
0	0	0	0	0	493
1	0	0	0	0	461
2	0	0	0	0	524
3	0	0	0	0	519
4	0	0	0	0	418
5	0	0	0	0	567
6	0	0	0	0	629
7	0	0	0	0	413
8	0	0	0	0	523
9	0	0	0	0	596
10	0	0	0	0	394
11	0	0	0	0	456
12	0	0	0	0	543
13	0	0	0	0	402
14	0	0	0	0	449
15	0	0	0	0	539
0	0	0	0	0	598
1	0	0	0	0	419
2	0	0	0	0	458
3	0	0	0	0	542
4	0	0	0	0	571
5	0	0	0	0	469
6	0	0	0	0	467
7	0	0	0	0	551
8	0	0	0	0	529
9	0	0	0	0	461
10	0	0	0	0	531
11	0	0	0	0	509
12	0	0	0	0	519
13	0	0	0	0	567
14	0	0	0	0	419
15	0	0	0	0	571
0	0	0	0	0	504
1	0	0	0	0	537
2	0	0	0	0	491
3	0	0	0	0	538
4	0	0	0	0	488
5	0	0	0	0	496
6	0	0	0	0	500
7	0	0	0	0	483
8	0	0	0	0	537
9	0	0	0	0	480
10	0	0	0	0	501
11	0	0	0	0	488
12	0	0	0	0	523
13	0	0	0	0	419
14	0	0	0	0	478
15	0	0	0	0	534
0	0	0	0	0	543
1	0	0	0	0	589
2	0	0	0	0	460
3	0	0	0	0	501
4	0	0	0	0	535
5	0	0	0	0	480
6	0	0	0	0	526
7	0	0	0	0	464
8	0	0	0	0	467
9	0	0	0	0	493
10	0	0	0	0	513
11	0	0	0	0	518
12	0	0	0	0	515
13	0	0	0	0	467
14	0	0	0	0	404
15	0	0	0	0	521
0	0	0	0	0	510
1	0	0	0	0	497
2	0	0	0	0	597
3	0	0	0	0	457
4	0	0	0	0	454
5	0	0	0	0	572
6	0	0	0	0	508
7	0	0	0	0	536
8	0	0	0	0	427
9	0	0	0	0	536
10	0	0	0	0	436
11	0	0	0	0	484
12	0	0	0	0	426
13	0	0	0	0	554
14	0	0	0	0	559
15	0	0	0	0	568
0	0	0	0	0	514
1	0	0	0	0	494
2	0	0	0	0	474
3	0	0	0	0	538
4	0	0	0	0	464
5	0	0	0	0	584
6	0	0	0	0	576
7	0	0	0	0	549
8	0	0	0	0	533
9	0	0	0	0	518
10	0	0	0	0	539
11	0	0	0	0	491
12	0	0	0	0	456
13	0	0	0	0	503
14	0	0	0	0	550
15	0	0	0	0	541
0	0	0	0	0	504
1	0	0	0	0	639
2	0	0	0	0	457
3	0	0	0	0	379
4	0	0	0	0	542
5	0	0	0	0	483
6	0	0	0	0	548
7	0	0	0	0	373
8	0	0	0	0	627
9	0	0	0	0	403
10	0	0	0	0	500
11	0	0	0	0	511
12	0	0	0	0	525
13	0	0	0	0	564
14	0	0	0	0	397
15	0	0	0	0	567
0	0	0	0	0	562
1	0	0	0	0	480
2	0	0	0	0	465
3	0	0	0	0	492
4	0	0	0	0	533
5	0	0	0	0	449
6	0	0	0	0	535
7	0	0	0	0	557
8	0	0	0	0	510
9	0	0	0	0	547
10	0	0	0	0	508
11	0	0	0	0	513
12	0	0	0	0	444
13	0	0	0	0	597
14	0	0	0	0	458
15	0	0	0	0	467
0	0	0	0	0	553
1	0	0	0	0	567
2	0	0	0	0	487
3	0	0	0	0	489
4	0	0	0	0	553
5	0	0	0	0	435
6	0	0	0	0	524
7	0	0	0	0	450
8	0	0	0	0	535
9	0	0	0	0	474
10	0	0	0	0	622
11	0	0	0	0	406
12	0	0	0	0	610
13	0	0	0	0	544
14	0	0	0	0	545
15	0	0	0	0	459
0	0	0	0	0	647
1	0	0	0	0	475
2	0	0	0	0	699
3	0	0	0	0	474
4	0	0	0	0	443
5	0	0	0	0	669
6	0	0	0	0	440
7	0	0	0	0	575
8	0	0	0	0	480
9	0	0	0	0	565
10	0	0	0	0	467
11	0	0	0	0	427
12	0	0	0	0	579
13	0	0	0	0	543
14	0	0	0	0	502
15	0	0	0	0	455
0	0	0	0	0	451
1	0	0	0	0	513
2	0	0	0	0	548
3	0	0	0	0	495
4	0	0	0	0	442
5	0	0	0	0	451
6	0	0	0	0	534
7	0	0	0	0	405
8	0	0	0	0	494
9	0	0	0	0	578
10	0	0	0	0	595
11	0	0	0	0	491
12	0	0	0	0	534
13	0	0	0	0	478
14	0	0	0	0	537
15	0	0	0	0	531
0	0	0	0	0	487
1	0	0	0	0	408
2	0	0	0	0	514
3	0	0	0	0	538
4	0	0	0	0	423
5	0	0	0	0	627
6	0	0	0	0	468
7	0	0	0	0	468
8	0	0	0	0	647
9	0	0	0	0	364
10	0	0	0	0	476
11	0	0	0	0	486
12	0	0	0	0	516
13	0	0	0	0	518
14	0	0	0	0	541
15	0	0	0	0	483
0	0	0	0	0	492
1	0	0	0	0	508
2	0	0	0	0	531
3	0	0	0	0	430
4	0	0	0	0	729
5	0	0	0	0	630
6	0	0	0	0	455
7	0	0	0	0	493
8	0	0	0	0	558
9	0	0	0	0	431
10	0	0	0	0	496
11	0	0	0	0	503
12	0	0	0	0	595
13	0	0	0	0	477
14	0	0	0	0	629
15	0	0	0	0	483
0	0	0	0	0	500
1	0	0	0	0	526
2	0	0	0	0	545
3	0	0	0	0	527
4	0	0	0	0	516
5	0	0	0	0	475
6	0	0	0	0	556
7	0	0	0	0	504
8	0	0	0	0	539
9	0	0	0	0	508
10	0	0	0	0	512
11	0	0	0	0	513
12	0	0	0	0	526
13	0	0	0	0	511
14	0	0	0	0	486
15	0	0	0	0	505
0	0	0	0	0	503
1	0	0	0	0	525
2	0	0	0	0	495
3	0	0	0	0	517
4	0	0	0	0	494
5	0	0	0	0	531
6	0	0	0	0	504
7	0	0	0	0	509
8	0	0	0	0	500
9	0	0	0	0	546
10	0	0	0	0	519
11	0	0	0	0	528
12	0	0	0	0	507
13	0	0	0	0	522
14	0	0	0	0	513
15	0	0	0	0	513
0	0	0	0	0	503
1	0	0	0	0	526
2	0	0	0	0	507
3	0	0	0	0	512
4	0	0	0	0	485
5	0	0	0	0	512
6	0	0	0	0	532
7	0	0	0	0	523
8	0	0	0	0	521
9	0	0	0	0	511
10	0	0	0	0	499
11	0	0	0	0	524
12	0	0	0	0	508
13	0	0	0	0	524
14	0	0	0	0	511
15	0	0	0	0	509
0	0	0	0	0	539
1	0	0	0	0	528
2	0	0	0	0	508
3	0	0	0	0	505
4	0	0	0	0	514
5	0	0	0	0	501
6	0	0	0	0	524
7	0	0	0	0	514
8	0	0	0	0	531
9	0	0	0	0	516
10	0	0	0	0	514
11	0	0	0	0	511
12	0	0	0	0	511
13	0	0	0	0	520
14	0	0	0	0	498
15	0	0	0	0	527
0	0	0	0	0	512
1	0	0	0	0	518
2	0	0	0	0	519
3	0	0	0	0	518
4	0	0	0	0	522
5	0	0	0	0	509
6	0	0	0	0	507
7	0	0	0	0	520
8	0	0	0	0	500
9	0	0	0	0	554
10	0	0	0	0	500
11	0	0	0	0	508
12	0	0	0	0	524
13	0	0	0	0	507
14	0	0	0	0	531
15	0	0	0	0	499
0	0	0	0	0	528
1	0	0	0	0	517
2	0	0	0	0	512
3	0	0	0	0	521
4	0	0	0	0	510
5	0	0	0	0	527
6	0	0	0	0	513
7	0	0	0	0	518
8	0	0	0	0	510
9	0	0	0	0	512
10	0	0	0	0	508
11	0	0	0	0	538
12	0	0	0	0	510
13	0	0	0	0	505
14	0	0	0	0	536
15	0	0	0	0	503
0	0	0	0	0	507
1	0	0	0	0	554
2	0	0	0	0	500
3	0	0	0	0	507
4	0	0	0	0	520
5	0	0	0	0	523
6	0	0	0	0	483
7	0	0	0	0	567
8	0	0	0	0	521
9	0	0	0	0	497
10	0	0	0	0	517
11	0	0	0	0	506
12	0	0	0	0	537
13	0	0	0	0	500
14	0	0	0	0	525
15	0	0	0	0	467
0	0	0	0	0	553
1	0	0	0	0	508
2	0	0	0	0	499
3	0	0	0	0	516
4	0	0	0	0	506
5	0	0	0	0	515
6	0	0	0	0	499
7	0	0	0	0	503
8	0	0	0	0	509
9	0	0	0	0	520
10	0	0	0	0	505
11	0	0	0	0	523
12	0	0	0	0	536
13	0	0	0	0	499
14	0	0	0	0	504
15	0	0	0	0	518
0	0	0	0	0	494
1	0	0	0	0	521
2	0	0	0	0	519
3	0	0	0	0	503
4	0	0	0	0	538
5	0	0	0	0	516
6	0	0	0	0	503
7	0	0	0	0	508
8	0	0	0	0	512
9	0	0	0	0	528
10	0	0	0	0	525
11	0	0	0	0	524
12	0	0	0	0	511
13	0	0	0	0	510
14	0	0	0	0	522
15	0	0	0	0	533
0	0	0	0	0	533
1	0	0	0	0	511
2	0	0	0	0	526
3	0	0	0	0	505
4	0	0	0	0	515
5	0	0	0	0	498
6	0	0	0	0	552
7	0	0	0	0	503
8	0	0	0	0	488
9	0	0	0	0	541
10	0	0	0	0	507
11	0	0	0	0	507
12	0	0	0	0	517
13	0	0	0	0	523
14	0	0	0	0	505
15	0	0	0	0	515
0	0	0	0	0	528
1	0	0	0	0	517
2	0	0	0	0	526
3	0	0	0	0	515
4	0	0	0	0	486
5	0	0	0	0	524
6	0	0	0	0	501
7	0	0	0	0	523
8	0	0	0	0	513
9	0	0	0	0	520
10	0	0	0	0	514
11	0	0	0	0	517
12	0	0	0	0	533
13	0	0	0	0	523
14	0	0	0	0	503
15	0	0	0	0	516
0	0	0	0	0	528
1	0	0	0	0	522
2	0	0	0	0	510
3	0	0	0	0	523
4	0	0	0	0	510
5	0	0	0	0	508
6	0	0	0	0	515
7	0	0	0	0	522
8	0	0	0	0	529
9	0	0	0	0	522
10	0	0	0	0	529
11	0	0	0	0	516
12	0	0	0	0	510
13	0	0	0	0	513
14	0	0	0	0	513
15	0	0	0	0	515
0	0	0	0	0	496
1	0	0	0	0	527
2	0	0	0	0	508
3	0	0	0	0	520
4	0	0	0	0	521
5	0	0	0	0	526
6	0	0	0	0	519
7	0	0	0	0	515
8	0	0	0	0	514
9	0	0	0	0	515
10	0	0	0	0	520
11	0	0	0	0	511
12	0	0	0	0	525
13	0	0	0	0	533
14	0	0	0	0	515
15	0	0	0	0	522
0	0	0	0	0	521
1	0	0	0	0	510
2	0	0	0	0	527
3	0	0	0	0	519
4	0	0	0	0	512
5	0	0	0	0	511
6	0	0	0	0	504
7	0	0	0	0	525
8	0	0	0	0	514
9	0	0	0	0	512
10	0	0	0	0	519
11	0	0	0	0	512
12	0	0	0	0	525
13	0	0	0	0	520
14	0	0	0	0	509
15	0	0	0	0	512
0	0	0	0	0	495
1	0	0	0	0	514
2	0	0	0	0	512
3	0	0	0	0	522
4	0	0	0	0	509
5	0	0	0	0	526
6	0	0	0	0	524
7	0	0	0	0	508
8	0	0	0	0	525
9	0	0	0	0	514
10	0	0	0	0	525
11	0	0	0	0	521
12	0	0	0	0	522
13	0	0	0	0	518
14	0	0	0	0	513
15	0	0	0	0	514
0	0	0	0	0	512
1	0	0	0	0	518
2	0	0	0	0	510
3	0	0	0	0	520
4	0	0	0	0	527
5	0	0	0	0	516
6	0	0	0	0	510
7	0	0	0	0	510
8	0	0	0	0	485
9	0	0	0	0	535
10	0	0	0	0	517
11	0	0	0	0	510
12	0	0	0	0	514
13	0	0	0	0	529
14	0	0	0	0	500
15	0	0	0	0	518
0	0	0	0	0	496
1	0	0	0	0	523
2	0	0	0	0	528
3	0	0	0	0	506
4	0	0	0	0	535
5	0	0	0	0	515
6	0	0	0	0	496
7	0	0	0	0	522
8	0	0	0	0	511
9	0	0	0	0	515
10	0	0	0	0	512
11	0	0	0	0	515
12	0	0	0	0	522
13	0	0	0	0	520
14	0	0	0	0	514
15	0	0	0	0	522
0	0	0	0	0	508
1	0	0	0	0	527
2	0	0	0	0	518
3	0	0	0	0	517
4	0	0	0	0	517
5	0	0	0	0	520
6	0	0	0	0	515
7	0	0	0	0	512
8	0	0	0	0	506
9	0	0	0	0	526
10	0	0	0	0	527
11	0	0	0	0	514
12	0	0	0	0	505
13	0	0	0	0	528
14	0	0	0	0	516
15	0	0	0	0	520
0	0	0	0	0	510
1	0	0	0	0	524
2	0	0	0	0	516
3	0	0	0	0	520
4	0	0	0	0	506
5	0	0	0	0	521
6	0	0	0	0	521
7	0	0	0	0	511
8	0	0	0	0	528
9	0	0	0	0	511
10	0	0	0	0	532
11	0	0	0	0	510
12	0	0	0	0	516
13	0	0	0	0	524
14	0	0	0	0	510
15	0	0	0	0	526
0	0	0	0	0	508
1	0	0	0	0	513
2	0	0	0	0	516
3	0	0	0	0	522
4	0	0	0	0	514
5	0	0	0	0	526
6	0	0	0	0	511
7	0	0	0	0	514
8	0	0	0	0	537
9	0	0	0	0	521
10	0	0	0	0	514
11	0	0	0	0	514
12	0	0	0	0	514
13	0	0	0	0	525
14	0	0	0	0	512
15	0	0	0	0	514
0	0	0	0	0	511
1	0	0	0	0	511
2	0	0	0	0	511
3	0	0	0	0	522
4	0	0	0	0	528
5	0	0	0	0	497
6	0	0	0	0	520
7	0	0	0	0	501
8	0	0	0	0	507
9	0	0	0	0	521
10	0	0	0	0	530
11	0	0	0	0	515
12	0	0	0	0	515
13	0	0	0	0	517
14	0	0	0	0	512
15	0	0	0	0	520
0	0	0	0	0	518
1	0	0	0	0	506
2	0	0	0	0	519
3	0	0	0	0	517
4	0	0	0	0	516
5	0	0	0	0	525
6	0	0	0	0	512
7	0	0	0	0	506
8	0	0	0	0	519
9	0	0	0	0	511
10	0	0	0	0	510
11	0	0	0	0	514
12	0	0	0	0	518
13	0	0	0	0	515
14	0	0	0	0	524
15	0	0	0	0	513
0	0	0	0	0	512
1	0	0	0	0	512
2	0	0	0	0	515
3	0	0	0	0	518
4	0	0	0	0	515
5	0	0	0	0	520
6	0	0	0	0	517
7	0	0	0	0	513
8	0	0	0	0	537
9	0	0	0	0	524
10	0	0	0	0	520
11	0	0	0	0	518
12	0	0	0	0	511
13	0	0	0	0	521
14	0	0	0	0	513
15	0	0	0	0	519
0	0	0	0	0	518
1	0	0	0	0	524
2	0	0	0	0	526
3	0	0	0	0	496
4	0	0	0	0	510
5	0	0	0	0	536
6	0	0	0	0	497
7	0	0	0	0	513
8	0	0	0	0	512
9	0	0	0	0	511
10	0	0	0	0	504
11	0	0	0	0	521
12	0	0	0	0	519
13	0	0	0	0	519
14	0	0	0	0	488
15	0	0	0	0	514
0	0	0	0	0	530
1	0	0	0	0	482
2	0	0	0	0	515
3	0	0	0	0	509
4	0	0	0	0	523
5	0	0	0	0	493
6	0	0	0	0	539
7	0	0	0	0	519
8	0	0	0	0	519
9	0	0	0	0	519
10	0	0	0	0	534
11	0	0	0	0	508
12	0	0	0	0	518
13	0	0	0	0	510
14	0	0	0	0	507
15	0	0	0	0	528
0	0	0	0	0	522
1	0	0	0	0	497
2	0	0	0	0	523
3	0	0	0	0	519
4	0	0	0	0	519
5	0	0	0	0	515
6	0	0	0	0	544
7	0	0	0	0	505
8	0	0	0	0	508
9	0	0	0	0	561
10	0	0	0	0	467
11	0	0	0	0	585
12	0	0	0	0	459
13	0	0	0	0	525
14	0	0	0	0	515
15	0	0	0	0	530
0	0	0	0	0	504
1	0	0	0	0	524
2	0	0	0	0	488
3	0	0	0	0	617
4	0	0	0	0	504
5	0	0	0	0	479
6	0	0	0	0	512
7	0	0	0	0	502
8	0	0	0	0	547
9	0	0	0	0	562
10	0	0	0	0	568
11	0	0	0	0	469
12	0	0	0	0	508
13	0	0	0	0	445
14	0	0	0	0	551
15	0	0	0	0	455
0	0	0	0	0	655
1	0	0	0	0	450
2	0	0	0	0	601
3	0	0	0	0	457
4	0	0	0	0	643
5	0	0	0	0	425
6	0	0	0	0	536
7	0	0	0	0	498
8	0	0	0	0	528
9	0	0	0	0	527
10	0	0	0	0	473
11	0	0	0	0	470
12	0	0	0	0	604
13	0	0	0	0	536
14	0	0	0	0	512
15	0	0	0	0	457
0	0	0	0	0	515
1	0	0	0	0	525
2	0	0	0	0	564
3	0	0	0	0	494
4	0	0	0	0	543
5	0	0	0	0	463
6	0	0	0	0	464
7	0	0	0	0	467
8	0	0	0	0	457
9	0	0	0	0	527
10	0	0	0	0	508
11	0	0	0	0	613
12	0	0	0	0	555
13	0	0	0	0	540
14	0	0	0	0	657
15	0	0	0	0	404
0	0	0	0	0	544
1	0	0	0	0	677
2	0	0	0	0	353
3	0	0	0	0	408
4	0	0	0	0	263
5	0	0	0	0	539
6	0	0	0	0	379
7	0	0	0	0	523
8	0	0	0	0	566
9	0	0	0	0	468
10	0	0	0	0	609
11	0	0	0	0	396
12	0	0	0	0	436
13	0	0	0	0	536
14	0	0	0	0	698
15	0	0	0	0	535
0	0	0	0	0	786
1	0	0	0	0	553
2	0	0	0	0	467
3	0	0	0	0	608
4	0	0	0	0	528
5	0	0	0	0	589
6	0	0	0	0	553
7	0	0	0	0	493
8	0	0	0	0	499
9	0	0	0	0	442
10	0	0	0	0	436
11	0	0	0	0	636
12	0	0	0	0	496
13	0	0	0	0	480
14	0	0	0	0	613
15	0	0	0	0	629
0	0	0	0	0	485
1	0	0	0	0	516
2	0	0	0	0	468
3	0	0	0	0	585
4	0	0	0	0	501
5	0	0	0	0	576
6	0	0	0	0	379
7	0	0	0	0	627
8	0	0	0	0	545
9	0	0	0	0	497
10	0	0	0	0	586
11	0	0	0	0	498
12	0	0	0	0	544
13	0	0	0	0	555
14	0	0	0	0	433
15	0	0	0	0	609
0	0	0	0	0	547
1	0	0	0	0	504
2	0	0	0	0	594
3	0	0	0	0	639
4	0	0	0	0	569
5	0	0	0	0	325
6	0	0	0	0	615
7	0	0	0	0	530
8	0	0	0	0	591
9	0	0	0	0	447
10	0	0	0	0	511
11	0	0	0	0	421
12	0	0	0	0	481
13	0	0	0	0	482
14	0	0	0	0	377
15	0	0	0	0	551
0	0	0	0	0	465
1	0	0	0	0	518
2	0	0	0	0	477
3	0	0	0	0	557
4	0	0	0	0	583
5	0	0	0	0	451
6	0	0	0	0	514
7	0	0	0	0	451
8	0	0	0	0	540
9	0	0	0	0	494
10	0	0	0	0	534
11	0	0	0	0	617
12	0	0	0	0	456
13	0	0	0	0	428
14	0	0	0	0	505
15	0	0	0	0	540
0	0	0	0	0	520
1	0	0	0	0	510
2	0	0	0	0	562
3	0	0	0	0	481
4	0	0	0	0	501
5	0	0	0	0	488
6	0	0	0	0	546
7	0	0	0	0	606
8	0	0	0	0	444
9	0	0	0	0	608
10	0	0	0	0	491
11	0	0	0	0	510
12	0	0	0	0	541
13	0	0	0	0	449
14	0	0	0	0	558
15	0	0	0	0	517
0	0	0	0	0	561
1	0	0	0	0	514
2	0	0	0	0	525
3	0	0	0	0	474
4	0	0	0	0	482
5	0	0	0	0	562
6	0	0	0	0	519
7	0	0	0	0	526
8	0	0	0	0	536
9	0	0	0	0	476
10	0	0	0	0	504
11	0	0	0	0	496
12	0	0	0	0	515
13	0	0	0	0	519
14	0	0	0	0	496
15	0	0	0	0	508
0	0	0	0	0	607
1	0	0	0	0	515
2	0	0	0	0	554
3	0	0	0	0	503
4	0	0	0	0	487
5	0	0	0	0	559
6	0	0	0	0	543
7	0	0	0	0	498
8	0	0	0	0	536
9	0	0	0	0	501
10	0	0	0	0	529
11	0	0	0	0	485
12	0	0	0	0	531
13	0	0	0	0	588
14	0	0	0	0	512
15	0	0	0	0	510
0	0	0	0	0	466
1	0	0	0	0	581
2	0	0	0	0	545
3	0	0	0	0	481
4	0	0	0	0	548
5	0	0	0	0	548
6	0	0	0	0	514
7	0	0	0	0	532
8	0	0	0	0	502
9	0	0	0	0	433
10	0	0	0	0	588
11	0	0	0	0	505
12	0	0	0	0	550
13	0	0	0	0	553
14	0	0	0	0	469
15	0	0	0	0	572
0	0	0	0	0	502
1	0	0	0	0	522
2	0	0	0	0	567
3	0	0	0	0	451
4	0	0	0	0	514
5	0	0	0	0	465
6	0	0	0	0	588
7	0	0	0	0	541
8	0	0	0	0	523
9	0	0	0	0	475
10	0	0	0	0	529
11	0	0	0	0	495
12	0	0	0	0	527
13	0	0	0	0	481
14	0	0	0	0	496
15	0	0	0	0	530
0	0	0	0	0	526
1	0	0	0	0	505
2	0	0	0	0	528
3	0	0	0	0	469
4	0	0	0	0	512
5	0	0	0	0	386
6	0	0	0	0	645
7	0	0	0	0	524
8	0	0	0	0	499
9	0	0	0	0	465
10	0	0	0	0	430
11	0	0	0	0	520
12	0	0	0	0	497
13	0	0	0	0	579
14	0	0	0	0	578
15	0	0	0	0	571
0	0	0	0	0	732
1	0	0	0	0	460
2	0	0	0	0	531
3	0	0	0	0	475
4	0	0	0	0	441
5	0	0	0	0	504
6	0	0	0	0	736
7	0	0	0	0	427
8	0	0	0	0	632
9	0	0	0	0	440
10	0	0	0	0	507
11	0	0	0	0	652
12	0	0	0	0	476
13	0	0	0	0	583
14	0	0	0	0	590
15	0	0	0	0	460
0	0	0	0	0	512
1	0	0	0	0	484
2	0	0	0	0	467
3	0	0	0	0	517
4	0	0	0	0	608
5	0	0	0	0	310
6	0	0	0	0	540
7	0	0	0	0	415
8	0	0	0	0	565
9	0	0	0	0	462
10	0	0	0	0	483
11	0	0	0	0	568
12	0	0	0	0	445
13	0	0	0	0	507
14	0	0	0	0	519
15	0	0	0	0	688
0	0	0	0	0	515
1	0	0	0	0	528
2	0	0	0	0	700
3	0	0	0	0	559
4	0	0	0	0	376
5	0	0	0	0	569
6	0	0	0	0	575
7	0	0	0	0	440
8	0	0	0	0	483
9	0	0	0	0	478
10	0	0	0	0	459
11	0	0	0	0	378
12	0	0	0	0	492
13	0	0	0	0	450
14	0	0	0	0	466
15	0	0	0	0	605
0	0	0	0	0	416
1	0	0	0	0	559
2	0	0	0	0	483
3	0	0	0	0	463
4	0	0	0	0	523
5	0	0	0	0	584
6	0	0	0	0	550
7	0	0	0	0	511
8	0	0	0	0	488
9	0	0	0	0	483
10	0	0	0	0	515
11	0	0	0	0	552
12	0	0	0	0	461
13	0	0	0	0	531
14	0	0	0	0	482
15	0	0	0	0	493
0	0	0	0	0	489
1	0	0	0	0	452
2	0	0	0	0	486
3	0	0	0	0	532
4	0	0	0	0	538
5	0	0	0	0	484
6	0	0	0	0	513
7	0	0	0	0	519
8	0	0	0	0	515
9	0	0	0	0	496
10	0	0	0	0	541
11	0	0	0	0	529
12	0	0	0	0	467
13	0	0	0	0	503
14	0	0	0	0	507
15	0	0	0	0	504
0	0	0	0	0	513
1	0	0	0	0	565
2	0	0	0	0	489
3	0	0	0	0	505
4	0	0	0	0	508
5	0	0	0	0	573
6	0	0	0	0	502
7	0	0	0	0	506
8	0	0	0	0	518
9	0	0	0	0	515
10	0	0	0	0	519
11	0	0	0	0	487
12	0	0	0	0	540
13	0	0	0	0	533
14	0	0	0	0	530
15	0	0	0	0	509
0	0	0	0	0	524
1	0	0	0	0	514
2	0	0	0	0	534
3	0	0	0	0	476
4	0	0	0	0	500
5	0	0	0	0	532
6	0	0	0	0	493
7	0	0	0	0	575
8	0	0	0	0	490
9	0	0	0	0	555
10	0	0	0	0	505
11	0	0	0	0	568
12	0	0	0	0	534
13	0	0	0	0	518
14	0	0	0	0	503
15	0	0	0	0	463
0	0	0	0	0	539
1	0	0	0	0	526
2	0	0	0	0	487
3	0	0	0	0	522
4	0	0	0	0	496
5	0	0	0	0	515
6	0	0	0	0	527
7	0	0	0	0	480
8	0	0	0	0	542
9	0	0	0	0	512
10	0	0	0	0	500
11	0	0	0	0	545
12	0	0	0	0	508
13	0	0	0	0	535
14	0	0	0	0	514
15	0	0	0	0	512
0	0	0	0	0	543
1	0	0	0	0	499
2	0	0	0	0	538
3	0	0	0	0	542
4	0	0	0	0	517
5	0	0	0	0	529
6	0	0	0	0	504
7	0	0	0	0	509
8	0	0	0	0	553
9	0	0	0	0	507
10	0	0	0	0	550
11	0	0	0	0	519
12	0	0	0	0	468
13	0	0	0	0	515
14	0	0	0	0	484
15	0	0	0	0	518
0	0	0	0	0	505
1	0	0	0	0	519
2	0	0	0	0	499
3	0	0	0	0	525
4	0	0	0	0	575
5	0	0	0	0	491
6	0	0	0	0	518
7	0	0	0	0	518
8	0	0	0	0	512
9	0	0	0	0	513
10	0	0	0	0	532
11	0	0	0	0	517
12	0	0	0	0	512
13	0	0	0	0	504
14	0	0	0	0	558
15	0	0	0	0	504
0	0	0	0	0	524
1	0	0	0	0	508
2	0	0	0	0	521
3	0	0	0	0	513
4	0	0	0	0	512
5	0	0	0	0	535
6	0	0	0	0	522
7	0	0	0	0	515
8	0	0	0	0	514
9	0	0	0	0	519
10	0	0	0	0	505
11	0	0	0	0	514
12	0	0	0	0	515
13	0	0	0	0	523
14	0	0	0	0	493
15	0	0	0	0	527
0	0	0	0	0	513
1	0	0	0	0	511
2	0	0	0	0	519
3	0	0	0	0	516
4	0	0	0	0	515
5	0	0	0	0	512
6	0	0	0	0	530
7	0	0	0	0	511
8	0	0	0	0	519
9	0	0	0	0	521
10	0	0	0	0	524
11	0	0	0	0	495
12	0	0	0	0	526
13	0	0	0	0	524
14	0	0	0	0	532
15	0	0	0	0	527
0	0	0	0	0	515
1	0	0	0	0	528
2	0	0	0	0	514
3	0	0	0	0	506
4	0	0	0	0	524
5	0	0	0	0	517
6	0	0	0	0	505
7	0	0	0	0	506
8	0	0	0	0	530
9	0	0	0	0	510
10	0	0	0	0	516
11	0	0	0	0	509
12	0	0	0	0	519
13	0	0	0	0	493
14	0	0	0	0	521
15	0	0	0	0	526
0	0	0	0	0	535
1	0	0	0	0	524
2	0	0	0	0	527
3	0	0	0	0	508
4	0	0	0	0	520
5	0	0	0	0	516
6	0	0	0	0	533
7	0	0	0	0	526
8	0	0	0	0	524
9	0	0	0	0	499
10	0	0	0	0	520
11	0	0	0	0	510
12	0	0	0	0	520
13	0	0	0	0	521
14	0	0	0	0	527
15	0	0	0	0	535
0	0	0	0	0	531
1	0	0	0	0	522
2	0	0	0	0	527
3	0	0	0	0	499
4	0	0	0	0	512
5	0	0	0	0	512
6	0	0	0	0	513
7	0	0	0	0	506
8	0	0	0	0	515
9	0	0	0	0	513
10	0	0	0	0	518
11	0	0	0	0	511
12	0	0	0	0	518
13	0	0	0	0	511
14	0	0	0	0	507
15	0	0	0	0	519
0	0	0	0	0	519
1	0	0	0	0	508
2	0	0	0	0	524
3	0	0	0	0	518
4	0	0	0	0	520
5	0	0	0	0	536
6	0	0	0	0	496
7	0	0	0	0	535
8	0	0	0	0	521
9	0	0	0	0	514
10	0	0	0	0	517
11	0	0	0	0	520
12	0	0	0	0	503
13	0	0	0	0	513
14	0	0	0	0	524
15	0	0	0	0	508
0	0	0	0	0	531
1	0	0	0	0	511
2	0	0	0	0	511
3	0	0	0	0	520
4	0	0	0	0	515
5	0	0	0	0	524
6	0	0	0	0	516
7	0	0	0	0	508
8	0	0	0	0	532
9	0	0	0	0	519
10	0	0	0	0	512
11	0	0	0	0	511
12	0	0	0	0	515
13	0	0	0	0	532
14	0	0	0	0	508
15	0	0	0	0	531
0	0	0	0	0	500
1	0	0	0	0	519
2	0	0	0	0	521
3	0	0	0	0	518
4	0	0	0	0	509
5	0	0	0	0	502
6	0	0	0	0	496
7	0	0	0	0	521
8	0	0	0	0	526
9	0	0	0	0	528
10	0	0	0	0	516
11	0	0	0	0	503
12	0	0	0	0	533
13	0	0	0	0	508
14	0	0	0	0	487
15	0	0	0	0	538
0	0	0	0	0	523
1	0	0	0	0	498
2	0	0	0	0	505
3	0	0	0	0	530
4	0	0	0	0	505
5	0	0	0	0	517
6	0	0	0	0	509
7	0	0	0	0	496
8	0	0	0	0	538
9	0	0	0	0	528
10	0	0	0	0	496
11	0	0	0	0	510
12	0	0	0	0	531
13	0	0	0	0	481
14	0	0	0	0	522
15	0	0	0	0	512
0	0	0	0	0	514
1	0	0	0	0	500
2	0	0	0	0	535
3	0	0	0	0	509
4	0	0	0	0	521
5	0	0	0	0	514
6	0	0	0	0	539
7	0	0	0	0	510
8	0	0	0	0	511
9	0	0	0	0	503
10	0	0	0	0	527
11	0	0	0	0	511
12	0	0	0	0	551
13	0	0	0	0	511
14	0	0	0	0	548
15	0	0	0	0	545
0	0	0	0	0	512
1	0	0	0	0	521
2	0	0	0	0	523
3	0	0	0	0	477
4	0	0	0	0	596
5	0	0	0	0	502
6	0	0	0	0	497
7	0	0	0	0	527
8	0	0	0	0	513
9	0	0	0	0	480
10	0	0	0	0	483
11	0	0	0	0	517
12	0	0	0	0	456
13	0	0	0	0	460
14	0	0	0	0	611
15	0	0	0	0	480
0	0	0	0	0	566
1	0	0	0	0	453
2	0	0	0	0	623
3	0	0	0	0	495
4	0	0	0	0	553
5	0	0	0	0	540
6	0	0	0	0	567
7	0	0	0	0	532
8	0	0	0	0	549
9	0	0	0	0	419
10	0	0	0	0	462
11	0	0	0	0	525
12	0	0	0	0	530
13	0	0	0	0	589
14	0	0	0	0	478
15	0	0	0	0	508
0	0	0	0	0	469
1	0	0	0	0	497
2	0	0	0	0	468
3	0	0	0	0	513
4	0	0	0	0	562
5	0	0	0	0	474
6	0	0	0	0	686
7	0	0	0	0	535
8	0	0	0	0	510
9	0	0	0	0	459
10	0	0	0	0	628
11	0	0	0	0	458
12	0	0	0	0	591
13	0	0	0	0	483
14	0	0	0	0	527
15	0	0	0	0	599
0	0	0	0	0	490
1	0	0	0	0	458
2	0	0	0	0	515
3	0	0	0	0	500
4	0	0	0	0	534
5	0	0	0	0	573
6	0	0	0	0	444
7	0	0	0	0	476
8	0	0	0	0	554
9	0	0	0	0	626
10	0	0	0	0	471
11	0	0	0	0	411
12	0	0	0	0	509
13	0	0	0	0	538
14	0	0	0	0	433
15	0	0	0	0	636
0	0	0	0	0	699
1	0	0	0	0	439
2	0	0	0	0	465
3	0	0	0	0	552
4	0	0	0	0	505
5	0	0	0	0	519
6	0	0	0	0	612
7	0	0	0	0	540
8	0	0	0	0	579
9	0	0	0	0	366
10	0	0	0	0	475
11	0	0	0	0	496
12	0	0	0	0	536
13	0	0	0	0	440
14	0	0	0	0	595
15	0	0	0	0	429
0	0	0	0	0	498
1	0	0	0	0	596
2	0	0	0	0	492
3	0	0	0	0	478
4	0	0	0	0	551
5	0	0	0	0	492
6	0	0	0	0	504
7	0	0	0	0	471
8	0	0	0	0	549
9	0	0	0	0	488
10	0	0	0	0	539
11	0	0	0	0	509
12	0	0	0	0	463
13	0	0	0	0	511
14	0	0	0	0	495
15	0	0	0	0	579
0	0	0	0	0	547
1	0	0	0	0	620
2	0	0	0	0	526
3	0	0	0	0	442
4	0	0	0	0	495
5	0	0	0	0	468
6	0	0	0	0	432
7	0	0	0	0	634
8	0	0	0	0	457
9	0	0	0	0	559
10	0	0	0	0	425
11	0	0	0	0	518
12	0	0	0	0	472
13	0	0	0	0	562
14	0	0	0	0	451
15	0	0	0	0	610
0	0	0	0	0	590
1	0	0	0	0	457
2	0	0	0	0	678
3	0	0	0	0	453
4	0	0	0	0	553
5	0	0	0	0	568
6	0	0	0	0	428
7	0	0	0	0	518
8	0	0	0	0	464
9	0	0	0	0	604
10	0	0	0	0	502
11	0	0	0	0	472
12	0	0	0	0	377
13	0	0	0	0	694
14	0	0	0	0	399
15	0	0	0	0	492
0	0	0	0	0	491
1	0	0	0	0	472
2	0	0	0	0	631
3	0	0	0	0	466
4	0	0	0	0	566
5	0	0	0	0	420
6	0	0	0	0	657
7	0	0	0	0	478
8	0	0	0	0	487
9	0	0	0	0	498
10	0	0	0	0	499
11	0	0	0	0	475
12	0	0	0	0	509
13	0	0	0	0	483
14	0	0	0	0	554
15	0	0	0	0	554
0	0	0	0	0	483
1	0	0	0	0	550
2	0	0	0	0	364
3	0	0	0	0	511
4	0	0	0	0	556
5	0	0	0	0	510
6	0	0	0	0	650
7	0	0	0	0	444
8	0	0	0	0	465
9	0	0	0	0	449
10	0	0	0	0	549
11	0	0	0	0	467
12	0	0	0	0	604
13	0	0	0	0	427
14	0	0	0	0	509
15	0	0	0	0	560
0	0	0	0	0	536
1	0	0	0	0	532
2	0	0	0	0	658
3	0	0	0	0	483
4	0	0	0	0	508
5	0	0	0	0	490
6	0	0	0	0	527
7	0	0	0	0	591
8	0	0	0	0	419
9	0	0	0	0	527
10	0	0	0	0	512
11	0	0	0	0	530
12	0	0	0	0	597
13	0	0	0	0	493
14	0	0	0	0	438
15	0	0	0	0	522
0	0	0	0	0	591
1	0	0	0	0	436
2	0	0	0	0	486
3	0	0	0	0	492
4	0	0	0	0	438
5	0	0	0	0	664
6	0	0	0	0	496
7	0	0	0	0	437
8	0	0	0	0	753
9	0	0	0	0	483
10	0	0	0	0	522
11	0	0	0	0	451
12	0	0	0	0	530
13	0	0	0	0	503
14	0	0	0	0	459
15	0	0	0	0	517
0	0	0	0	0	566
1	0	0	0	0	554
2	0	0	0	0	501
3	0	0	0	0	464
4	0	0	0	0	507
5	0	0	0	0	608
6	0	0	0	0	491
7	0	0	0	0	588
8	0	0	0	0	479
9	0	0	0	0	614
10	0	0	0	0	486
11	0	0	0	0	487
12	0	0	0	0	496
13	0	0	0	0	500
14	0	0	0	0	627
15	0	0	0	0	497
0	0	0	0	0	553
1	0	0	0	0	532
2	0	0	0	0	560
3	0	0	0	0	532
4	0	0	0	0	449
5	0	0	0	0	521
6	0	0	0	0	516
7	0	0	0	0	448
8	0	0	0	0	541
9	0	0	0	0	528
10	0	0	0	0	545
11	0	0	0	0	536
12	0	0	0	0	595
13	0	0	0	0	433
14	0	0	0	0	475
15	0	0	0	0	625
0	0	0	0	0	455
1	0	0	0	0	542
2	0	0	0	0	463
3	0	0	0	0	414
4	0	0	0	0	593
5	0	0	0	0	499
6	0	0	0	0	498
7	0	0	0	0	659
8	0	0	0	0	433
9	0	0	0	0	509
10	0	0	0	0	511
11	0	0	0	0	615
12	0	0	0	0	503
13	0	0	0	0	497
14	0	0	0	0	527
15	0	0	0	0	499
0	0	0	0	0	535
1	0	0	0	0	460
2	0	0	0	0	499
3	0	0	0	0	533
4	0	0	0	0	526
5	0	0	0	0	548
6	0	0	0	0	555
7	0	0	0	0	500
8	0	0	0	0	471
9	0	0	0	0	495
10	0	0	0	0	528
11	0	0	0	0	606
12	0	0	0	0	482
13	0	0	0	0	544
14	0	0	0	0	510
15	0	0	0	0	535
0	0	0	0	0	481
1	0	0	0	0	573
2	0	0	0	0	541
3	0	0	0	0	505
4	0	0	0	0	538
5	0	0	0	0	517
6	0	0	0	0	522
7	0	0	0	0	486
8	0	0	0	0	524
9	0	0	0	0	501
10	0	0	0	0	511
11	0	0	0	0	529
12	0	0	0	0	510
13	0	0	0	0	501
14	0	0	0	0	489
15	0	0	0	0	506
0	0	0	0	0	537
1	0	0	0	0	515
2	0	0	0	0	507
3	0	0	0	0	510
4	0	0	0	0	547
5	0	0	0	0	472
6	0	0	0	0	505
7	0	0	0	0	523
8	0	0	0	0	515
9	0	0	0	0	518
10	0	0	0	0	538
11	0	0	0	0	516
12	0	0	0	0	525
13	0	0	0	0	523
14	0	0	0	0	515
15	0	0	0	0	522
0	0	0	0	0	519
1	0	0	0	0	506
2	0	0	0	0	526
3	0	0	0	0	500
4	0	0	0	0	505
5	0	0	0	0	498
6	0	0	0	0	531
7	0	0	0	0	512
8	0	0	0	0	507
9	0	0	0	0	531
10	0	0	0	0	510
11	0	0	0	0	515
12	0	0	0	0	505
13	0	0	0	0	507
14	0	0	0	0	527
15	0	0	0	0	525
0	0	0	0	0	511
1	0	0	0	0	516
2	0	0	0	0	529
3	0	0	0	0	508
4	0	0	0	0	521
5	0	0	0	0	505
6	0	0	0	0	521
7	0	0	0	0	510
8	0	0	0	0	533
9	0	0	0	0	527
10	0	0	0	0	527
11	0	0	0	0	512
12	0	0	0	0	520
13	0	0	0	0	504
14	0	0	0	0	510
15	0	0	0	0	519
0	0	0	0	0	487
1	0	0	0	0	554
2	0	0	0	0	541
3	0	0	0	0	515
4	0	0	0	0	514
5	0	0	0	0	513
6	0	0	0	0	511
7	0	0	0	0	516
8	0	0	0	0	511
9	0	0	0	0	518
10	0	0	0	0	504
11	0	0	0	0	543
12	0	0	0	0	486
13	0	0	0	0	527
14	0	0	0	0	519
15	0	0	0	0	503
0	0	0	0	0	513
1	0	0	0	0	516
2	0	0	0	0	522
3	0	0	0	0	514
4	0	0	0	0	516
5	0	0	0	0	502
6	0	0	0	0	502
7	0	0	0	0	531
8	0	0	0	0	522
9	0	0	0	0	510
10	0	0	0	0	509
11	0	0	0	0	509
12	0	0	0	0	511
13	0	0	0	0	534
14	0	0	0	0	527
15	0	0	0	0	513
0	0	0	0	0	519
1	0	0	0	0	520
2	0	0	0	0	508
3	0	0	0	0	508
4	0	0	0	0	511
5	0	0	0	0	523
6	0	0	0	0	507
7	0	0	0	0	510
8	0	0	0	0	518
9	0	0	0	0	508
10	0	0	0	0	571
11	0	0	0	0	496
12	0	0	0	0	504
13	0	0	0	0	510
14	0	0	0	0	529
15	0	0	0	0	508
0	0	0	0	0	526
1	0	0	0	0	496
2	0	0	0	0	521
3	0	0	0	0	519
4	0	0	0	0	514
5	0	0	0	0	543
6	0	0	0	0	507
7	0	0	0	0	524
8	0	0	0	0	514
9	0	0	0	0	506
10	0	0	0	0	510
11	0	0	0	0	526
12	0	0	0	0	511
13	0	0	0	0	523
14	0	0	0	0	507
15	0	0	0	0	519
0	0	0	0	0	515
1	0	0	0	0	524
2	0	0	0	0	512
3	0	0	0	0	525
4	0	0	0	0	513
5	0	0	0	0	516
6	0	0	0	0	513
7	0	0	0	0	524
8	0	0	0	0	526
9	0	0	0	0	505
10	0	0	0	0	514
11	0	0	0	0	520
12	0	0	0	0	525
13	0	0	0	0	499
14	0	0	0	0	527
15	0	0	0	0	533
0	0	0	0	0	511
1	0	0	0	0	509
2	0	0	0	0	521
3	0	0	0	0	524
4	0	0	0	0	512
5	0	0	0	0	519
6	0	0	0	0	510
7	0	0	0	0	520
8	0	0	0	0	505
9	0	0	0	0	513
10	0	0	0	0	513
11	0	0	0	0	513
12	0	0	0	0	512
13	0	0	0	0	514
14	0	0	0	0	512
15	0	0	0	0	488
0	0	0	0	0	528
1	0	0	0	0	555
2	0	0	0	0	526
3	0	0	0	0	510
4	0	0	0	0	522
5	0	0	0	0	531
6	0	0	0	0	515
7	0	0	0	0	506
8	0	0	0	0	527
9	0	0	0	0	509
10	0	0	0	0	511
11	0	0	0	0	516
12	0	0	0	0	520
13	0	0	0	0	511
14	0	0	0	0	512
15	0	0	0	0	505
0	0	0	0	0	498
1	0	0	0	0	510
2	0	0	0	0	519
3	0	0	0	0	508
4	0	0	0	0	511
5	0	0	0	0	519
6	0	0	0	0	498
7	0	0	0	0	502
8	0	0	0	0	515
9	0	0	0	0	518
10	0	0	0	0	522
11	0	0	0	0	510
12	0	0	0	0	510
13	0	0	0	0	516
14	0	0	0	0	521
15	0	0	0	0	510
0	0	0	0	0	518
1	0	0	0	0	500
2	0	0	0	0	510
3	0	0	0	0	509
4	0	0	0	0	527
5	0	0	0	0	517
6	0	0	0	0	497
7	0	0	0	0	525
8	0	0	0	0	511
9	0	0	0	0	525
10	0	0	0	0	506
11	0	0	0	0	521
12	0	0	0	0	510
13	0	0	0	0	516
14	0	0	0	0	511
15	0	0	0	0	520
0	0	0	0	0	512
1	0	0	0	0	518
2	0	0	0	0	517
3	0	0	0	0	530
4	0	0	0	0	526
5	0	0	0	0	513
6	0	0	0	0	515
7	0	0	0	0	518
8	0	0	0	0	529
9	0	0	0	0	500
10	0	0	0	0	521
11	0	0	0	0	519
12	0	0	0	0	505
13	0	0	0	0	510
14	0	0	0	0	508
15	0	0	0	0	510
0	0	0	0	0	526
1	0	0	0	0	514
2	0	0	0	0	504
3	0	0	0	0	518
4	0	0	0	0	519
5	0	0	0	0	517
6	0	0	0	0	514
7	0	0	0	0	533
8	0	0	0	0	511
9	0	0	0	0	518
10	0	0	0	0	516
11	0	0	0	0	514
12	0	0	0	0	520
13	0	0	0	0	513
14	0	0	0	0	512
15	0	0	0	0	516
0	0	0	0	0	520
1	0	0	0	0	499
2	0	0	0	0	540
3	0	0	0	0	512
4	0	0	0	0	511
5	0	0	0	0	532
6	0	0	0	0	497
7	0	0	0	0	525
8	0	0	0	0	523
9	0	0	0	0	525
10	0	0	0	0	515
11	0	0	0	0	511
12	0	0	0	0	532
13	0	0	0	0	506
14	0	0	0	0	520
15	0	0	0	0	501
0	0	0	0	0	525
1	0	0	0	0	532
2	0	0	0	0	517
3	0	0	0	0	515
4	0	0	0	0	513
5	0	0	0	0	499
6	0	0	0	0	504
7	0	0	0	0	511
8	0	0	0	0	508
9	0	0	0	0	509
10	0	0	0	0	517
11	0	0	0	0	495
12	0	0	0	0	524
13	0	0	0	0	482
14	0	0	0	0	514
15	0	0	0	0	533
0	0	0	0	0	501
1	0	0	0	0	533
2	0	0	0	0	515
3	0	0	0	0	536
4	0	0	0	0	522
5	0	0	0	0	484
6	0	0	0	0	566
7	0	0	0	0	491
8	0	0	0	0	505
9	0	0	0	0	521
10	0	0	0	0	525
11	0	0	0	0	513
12	0	0	0	0	505
13	0	0	0	0	506
14	0	0	0	0	529
15	0	0	0	0	521
0	0	0	0	0	515
1	0	0	0	0	495
2	0	0	0	0	536
3	0	0	0	0	498
4	0	0	0	0	519
5	0	0	0	0	487
6	0	0	0	0	537
7	0	0	0	0	517
8	0	0	0	0	516
9	0	0	0	0	483
10	0	0	0	0	551
11	0	0	0	0	531
12	0	0	0	0	506
13	0	0	0	0	508
14	0	0	0	0	526
15	0	0	0	0	516
0	0	0	0	0	528
1	0	0	0	0	493
2	0	0	0	0	493
3	0	0	0	0	552
4	0	0	0	0	529
5	0	0	0	0	436
6	0	0	0	0	616
7	0	0	0	0	492
8	0	0	0	0	531
9	0	0	0	0	462
10	0	0	0	0	497
11	0	0	0	0	524
12	0	0	0	0	534
13	0	0	0	0	551
14	0	0	0	0	561
15	0	0	0	0	437
0	0	0	0	0	512
1	0	0	0	0	433
2	0	0	0	0	580
3	0	0	0	0	533
4	0	0	0	0	486
5	0	0	0	0	455
6	0	0	0	0	689
7	0	0	0	0	489
8	0	0	0	0	596
9	0	0	0	0	526
10	0	0	0	0	445
11	0	0	0	0	606
12	0	0	0	0	535
13	0	0	0	0	588
14	0	0	0	0	407
15	0	0	0	0	492
0	0	0	0	0	566
1	0	0	0	0	458
2	0	0	0	0	625
3	0	0	0	0	540
4	0	0	0	0	424
5	0	0	0	0	664
6	0	0	0	0	484
7	0	0	0	0	471
8	0	0	0	0	489
9	0	0	0	0	567
10	0	0	0	0	478
11	0	0	0	0	491
12	0	0	0	0	491
13	0	0	0	0	592
14	0	0	0	0	380
15	0	0	0	0	596
0	0	0	0	0	457
1	0	0	0	0	307
2	0	0	0	0	499
3	0	0	0	0	459
4	0	0	0	0	720
5	0	0	0	0	458
6	0	0	0	0	453
7	0	0	0	0	371
8	0	0	0	0	533
9	0	0	0	0	496
10	0	0	0	0	509
11	0	0	0	0	396
12	0	0	0	0	401
13	0	0	0	0	614
14	0	0	0	0	394
15	0	0	0	0	636
0	0	0	0	0	568
1	0	0	0	0	415
2	0	0	0	0	400
3	0	0	0	0	468
4	0	0	0	0	483
5	0	0	0	0	489
6	0	0	0	0	435
7	0	0	0	0	611
8	0	0	0	0	532
9	0	0	0	0	748
10	0	0	0	0	512
11	0	0	0	0	393
12	0	0	0	0	559
13	0	0	0	0	320
14	0	0	0	0	658
15	0	0	0	0	421
0	0	0	0	0	511
1	0	0	0	0	437
2	0	0	0	0	503
3	0	0	0	0	478
4	0	0	0	0	405
5	0	0	0	0	423
6	0	0	0	0	726
7	0	0	0	0	464
8	0	0	0	0	408
9	0	0	0	0	599
10	0	0	0	0	337
11	0	0	0	0	608
12	0	0	0	0	383
13	0	0	0	0	608
14	0	0	0	0	553
15	0	0	0	0	484
0	0	0	0	0	473
1	0	0	0	0	634
2	0	0	0	0	710
3	0	0	0	0	554
4	0	0	0	0	514
5	0	0	0	0	377
6	0	0	0	0	513
7	0	0	0	0	440
8	0	0	0	0	639
9	0	0	0	0	428
10	0	0	0	0	415
11	0	0	0	0	471
12	0	0	0	0	609
13	0	0	0	0	519
14	0	0	0	0	509
15	0	0	0	0	514
0	0	0	0	0	508
1	0	0	0	0	521
2	0	0	0	0	441
3	0	0	0	0	576
4	0	0	0	0	535
5	0	0	0	0	376
6	0	0	0	0	458
7	0	0	0	0	626
8	0	0	0	0	431
9	0	0	0	0	470
10	0	0	0	0	500
11	0	0	0	0	431
12	0	0	0	0	615
13	0	0	0	0	435
14	0	0	0	0	465
15	0	0	0	0	639
0	0	0	0	0	570
1	0	0	0	0	448
2	0	0	0	0	612
3	0	0	0	0	481
4	0	0	0	0	495
5	0	0	0	0	490
6	0	0	0	0	696
7	0	0	0	0	505
8	0	0	0	0	434
9	0	0	0	0	598
10	0	0	0	0	464
11	0	0	0	0	434
12	0	0	0	0	599
13	0	0	0	0	521
14	0	0	0	0	501
15	0	0	0	0	522
0	0	0	0	0	507
1	0	0	0	0	549
2	0	0	0	0	484
3	0	0	0	0	437
4	0	0	0	0	423
5	0	0	0	0	501
6	0	0	0	0	456
7	0	0	0	0	585
8	0	0	0	0	457
9	0	0	0	0	634
10	0	0	0	0	495
11	0	0	0	0	527
12	0	0	0	0	460
13	0	0	0	0	630
14	0	0	0	0	493
15	0	0	0	0	652
0	0	0	0	0	405
1	0	0	0	0	478
2	0	0	0	0	684
3	0	0	0	0	476
4	0	0	0	0	588
5	0	0	0	0	487
6	0	0	0	0	542
7	0	0	0	0	562
8	0	0	0	0	494
9	0	0	0	0	523
10	0	0	0	0	512
11	0	0	0	0	518
12	0	0	0	0	637
13	0	0	0	0	583
14	0	0	0	0	444
15	0	0	0	0	575
0	0	0	0	0	439
1	0	0	0	0	511
2	0	0	0	0	490
3	0	0	0	0	503
4	0	0	0	0	443
5	0	0	0	0	460
6	0	0	0	0	507
7	0	0	0	0	536
8	0	0	0	0	361
9	0	0	0	0	459
10	0	0	0	0	636
11	0	0	0	0	591
12	0	0	0	0	453
13	0	0	0	0	596
14	0	0	0	0	557
15	0	0	0	0	501
0	0	0	0	0	556
1	0	0	0	0	528
2	0	0	0	0	496
3	0	0	0	0	520
4	0	0	0	0	423
5	0	0	0	0	641
6	0	0	0	0	617
7	0	0	0	0	417
8	0	0	0	0	624
9	0	0	0	0	458
10	0	0	0	0	540
11	0	0	0	0	563
12	0	0	0	0	606
13	0	0	0	0	480
14	0	0	0	0	516
15	0	0	0	0	535
0	0	0	0	0	531
1	0	0	0	0	491
2	0	0	0	0	561
3	0	0	0	0	519
4	0	0	0	0	499
5	0	0	0	0	486
6	0	0	0	0	637
7	0	0	0	0	498
8	0	0	0	0	538
9	0	0	0	0	507
10	0	0	0	0	507
11	0	0	0	0	496
12	0	0	0	0	506
13	0	0	0	0	510
14	0	0	0	0	524
15	0	0	0	0	509
0	0	0	0	0	516
1	0	0	0	0	501
2	0	0	0	0	499
3	0	0	0	0	483
4	0	0	0	0	544
5	0	0	0	0	524
6	0	0	0	0	500
7	0	0	0	0	560
8	0	0	0	0	502
9	0	0	0	0	511
10	0	0	0	0	517
11	0	0	0	0	523
12	0	0	0	0	518
13	0	0	0	0	530
14	0	0	0	0	529
15	0	0	0	0	502
0	0	0	0	0	493
1	0	0	0	0	537
2	0	0	0	0	529
3	0	0	0	0	518
4	0	0	0	0	515
5	0	0	0	0	526
6	0	0	0	0	508
7	0	0	0	0	519
8	0	0	0	0	503
9	0	0	0	0	511
10	0	0	0	0	496
11	0	0	0	0	501
12	0	0	0	0	515
13	0	0	0	0	506
14	0	0	0	0	551
15	0	0	0	0	502
0	0	0	0	0	501
1	0	0	0	0	494
2	0	0	0	0	529
3	0	0	0	0	521
4	0	0	0	0	531
5	0	0	0	0	508
6	0	0	0	0	518
7	0	0	0	0	508
8	0	0	0	0	532
9	0	0	0	0	487
10	0	0	0	0	517
11	0	0	0	0	512
12	0	0	0	0	521
13	0	0	0	0	521
14	0	0	0	0	513
15	0	0	0	0	523
0	0	0	0	0	501
1	0	0	0	0	509
2	0	0	0	0	503
3	0	0	0	0	530
4	0	0	0	0	531
5	0	0	0	0	501
6	0	0	0	0	530
7	0	0	0	0	527
8	0	0	0	0	521
9	0	0	0	0	504
10	0	0	0	0	519
11	0	0	0	0	512
12	0	0	0	0	516
13	0	0	0	0	520
14	0	0	0	0	504
15	0	0	0	0	519
0	0	0	0	0	541
1	0	0	0	0	530
2	0	0	0	0	535
3	0	0	0	0	509
4	0	0	0	0	511
5	0	0	0	0	510
6	0	0	0	0	515
7	0	0	0	0	520
8	0	0	0	0	533
9	0	0	0	0	505
10	0	0	0	0	510
11	0	0	0	0	506
12	0	0	0	0	520
13	0	0	0	0	514
14	0	0	0	0	522
15	0	0	0	0	511
0	0	0	0	0	525
1	0	0	0	0	507
2	0	0	0	0	513
3	0	0	0	0	519
4	0	0	0	0	510
5	0	0	0	0	512
6	0	0	0	0	483
7	0	0	0	0	511
8	0	0	0	0	502
9	0	0	0	0	511
10	0	0	0	0	549
11	0	0	0	0	508
12	0	0	0	0	512
13	0	0	0	0	536
14	0	0	0	0	521
15	0	0	0	0	539
0	0	0	0	0	510
1	0	0	0	0	523
2	0	0	0	0	513
3	0	0	0	0	517
4	0	0	0	0	506
5	0	0	0	0	524
6	0	0	0	0	509
7	0	0	0	0	511
8	0	0	0	0	524
9	0	0	0	0	519
10	0	0	0	0	508
11	0	0	0	0	507
12	0	0	0	0	524
13	0	0	0	0	519
14	0	0	0	0	518
15	0	0	0	0	533
0	0	0	0	0	533
1	0	0	0	0	496
2	0	0	0	0	526
3	0	0	0	0	501
4	0	0	0	0	507
5	0	0	0	0	513
6	0	0	0	0	521
7	0	0	0	0	523
8	0	0	0	0	503
9	0	0	0	0	521
10	0	0	0	0	525
11	0	0	0	0	531
12	0	0	0	0	504
13	0	0	0	0	514
14	0	0	0	0	526
15	0	0	0	0	523
0	0	0	0	0	518
1	0	0	0	0	513
2	0	0	0	0	514
3	0	0	0	0	513
4	0	0	0	0	518
5	0	0	0	0	520
6	0	0	0	0	511
7	0	0	0	0	515
8	0	0	0	0	504
9	0	0	0	0	533
10	0	0	0	0	517
11	0	0	0	0	511
12	0	0	0	0	525
13	0	0	0	0	518
14	0	0	0	0	515
15	0	0	0	0	519
0	0	0	0	0	524
1	0	0	0	0	529
2	0	0	0	0	513
3	0	0	0	0	512
4	0	0	0	0	525
5	0	0	0	0	523
6	0	0	0	0	514
7	0	0	0	0	516
8	0	0	0	0	508
9	0	0	0	0	513
10	0	0	0	0	512
11	0	0	0	0	517
12	0	0	0	0	513
13	0	0	0	0	518
14	0	0	0	0	526
15	0	0	0	0	504
0	0	0	0	0	519
1	0	0	0	0	514
2	0	0	0	0	518
3	0	0	0	0	503
4	0	0	0	0	513
5	0	0	0	0	528
6	0	0	0	0	499
7	0	0	0	0	514
8	0	0	0	0	508
9	0	0	0	0	517
10	0	0	0	0	517
11	0	0	0	0	531
12	0	0	0	0	499
13	0	0	0	0	536
14	0	0	0	0	523
15	0	0	0	0	516
0	0	0	0	0	526
1	0	0	0	0	500
2	0	0	0	0	537
3	0	0	0	0	499
4	0	0	0	0	510
5	0	0	0	0	504
6	0	0	0	0	513
7	0	0	0	0	517
8	0	0	0	0	531
9	0	0	0	0	507
10	0	0	0	0	516
11	0	0	0	0	518
12	0	0	0	0	522
13	0	0	0	0	519
14	0	0	0	0	506
15	0	0	0	0	515
0	0	0	0	0	537
1	0	0	0	0	510
2	0	0	0	0	537
3	0	0	0	0	508
4	0	0	0	0	524
5	0	0	0	0	523
6	0	0	0	0	520
7	0	0	0	0	497
8	0	0	0	0	527
9	0	0	0	0	487
10	0	0	0	0	504
11	0	0	0	0	542
12	0	0	0	0	497
13	0	0	0	0	507
14	0	0	0	0	490
15	0	0	0	0	544
0	0	0	0	0	497
1	0	0	0	0	503
2	0	0	0	0	516
3	0	0	0	0	532
4	0	0	0	0	492
5	0	0	0	0	566
6	0	0	0	0	496
7	0	0	0	0	517
8	0	0	0	0	511
9	0	0	0	0	497
10	0	0	0	0	480
11	0	0	0	0	518
12	0	0	0	0	513
13	0	0	0	0	558
14	0	0	0	0	514
15	0	0	0	0	529
0	0	0	0	0	479
1	0	0	0	0	503
2	0	0	0	0	556
3	0	0	0	0	464
4	0	0	0	0	551
5	0	0	0	0	487
6	0	0	0	0	508
7	0	0	0	0	432
8	0	0	0	0	503
9	0	0	0	0	538
10	0	0	0	0	475
11	0	0	0	0	537
12	0	0	0	0	528
13	0	0	0	0	464
14	0	0	0	0	675
15	0	0	0	0	432
0	0	0	0	0	548
1	0	0	0	0	377
2	0	0	0	0	440
3	0	0	0	0	590
4	0	0	0	0	499
5	0	0	0	0	443
6	0	0	0	0	525
7	0	0	0	0	433
8	0	0	0	0	688
9	0	0	0	0	539
10	0	0	0	0	644
11	0	0	0	0	465
12	0	0	0	0	466
13	0	0	0	0	499
14	0	0	0	0	369
15	0	0	0	0	691
0	0	0	0	0	622
1	0	0	0	0	599
2	0	0	0	0	390
3	0	0	0	0	500
4	0	0	0	0	561
5	0	0	0	0	627
6	0	0	0	0	518
7	0	0	0	0	441
8	0	0	0	0	488
9	0	0	0	0	444
10	0	0	0	0	417
11	0	0	0	0	541
12	0	0	0	0	507
13	0	0	0	0	553
14	0	0	0	0	499
15	0	0	0	0	476
0	0	0	0	0	535
1	0	0	0	0	335
2	0	0	0	0	748
3	0	0	0	0	585
4	0	0	0	0	487
5	0	0	0	0	484
6	0	0	0	0	583
7	0	0	0	0	668
8	0	0	0	0	314
9	0	0	0	0	457
10	0	0	0	0	656
11	0	0	0	0	453
12	0	0	0	0	468
13	0	0	0	0	532
14	0	0	0	0	358
15	0	0	0	0	697
0	0	0	0	0	564
1	0	0	0	0	522
2	0	0	0	0	497
3	0	0	0	0	564
4	0	0	0	0	368
5	0	0	0	0	508
6	0	0	0	0	536
7	0	0	0	0	531
8	0	0	0	0	484
9	0	0	0	0	580
10	0	0	0	0	785
11	0	0	0	0	473
12	0	0	0	0	478
13	0	0	0	0	502
14	0	0	0	0	660
15	0	0	0	0	480
0	0	0	0	0	551
1	0	0	0	0	425
2	0	0	0	0	684
3	0	0	0	0	480
4	0	0	0	0	484
5	0	0	0	0	394
6	0	0	0	0	567
7	0	0	0	0	700
8	0	0	0	0	453
9	0	0	0	0	638
10	0	0	0	0	481
11	0	0	0	0	489
12	0	0	0	0	553
13	0	0	0	0	485
14	0	0	0	0	637
15	0	0	0	0	513
0	0	0	0	0	595
1	0	0	0	0	497
2	0	0	0	0	397
3	0	0	0	0	467
4	0	0	0	0	528
5	0	0	0	0	548
6	0	0	0	0	383
7	0	0	0	0	598
8	0	0	0	0	446
9	0	0	0	0	557
10	0	0	0	0	464
11	0	0	0	0	515
12	0	0	0	0	594
13	0	0	0	0	415
14	0	0	0	0	669
15	0	0	0	0	483
0	0	0	0	0	475
1	0	0	0	0	609
2	0	0	0	0	418
3	0	0	0	0	520
4	0	0	0	0	569
5	0	0	0	0	547
6	0	0	0	0	519
7	0	0	0	0	567
8	0	0	0	0	568
9	0	0	0	0	553
10	0	0	0	0	432
11	0	0	0	0	477
12	0	0	0	0	630
13	0	0	0	0	600
14	0	0	0	0	448
15	0	0	0	0	329
0	0	0	0	0	643
1	0	0	0	0	539
2	0	0	0	0	731
3	0	0	0	0	674
4	0	0	0	0	418
5	0	0	0	0	528
6	0	0	0	0	545
7	0	0	0	0	543
8	0	0	0	0	498
9	0	0	0	0	516
10	0	0	0	0	449
11	0	0	0	0	510
12	0	0	0	0	521
13	0	0	0	0	444
14	0	0	0	0	527
15	0	0	0	0	484
0	0	0	0	0	529
1	0	0	0	0	499
2	0	0	0	0	519
3	0	0	0	0	508
4	0	0	0	0	524
5	0	0	0	0	540
6	0	0	0	0	507
7	0	0	0	0	508
8	0	0	0	0	529
9	0	0	0	0	536
10	0	0	0	0	550
11	0	0	0	0	515
12	0	0	0	0	545
13	0	0	0	0	534
14	0	0	0	0	509
15	0	0	0	0	531
0	0	0	0	0	507
1	0	0	0	0	515
2	0	0	0	0	508
3	0	0	0	0	537
4	0	0	0	0	508
5	0	0	0	0	524
6	0	0	0	0	513
7	0	0	0	0	519
8	0	0	0	0	516
9	0	0	0	0	546
10	0	0	0	0	501
11	0	0	0	0	511
12	0	0	0	0	552
13	0	0	0	0	519
14	0	0	0	0	520
15	0	0	0	0	527
0	0	0	0	0	523
1	0	0	0	0	521
2	0	0	0	0	521
3	0	0	0	0	515
4	0	0	0	0	518
5	0	0	0	0	525
6	0	0	0	0	532
7	0	0	0	0	519
8	0	0	0	0	505
9	0	0	0	0	523
10	0	0	0	0	516
11	0	0	0	0	511
12	0	0	0	0	523
13	0	0	0	0	535
14	0	0	0	0	514
15	0	0	0	0	515
0	0	0	0	0	523
1	0	0	0	0	515
2	0	0	0	0	505
3	0	0	0	0	515
4	0	0	0	0	517
5	0	0	0	0	510
6	0	0	0	0	523
7	0	0	0	0	512
8	0	0	0	0	510
9	0	0	0	0	508
10	0	0	0	0	520
11	0	0	0	0	509
12	0	0	0	0	515
13	0	0	0	0	523
14	0	0	0	0	527
15	0	0	0	0	500
0	0	0	0	0	527
1	0	0	0	0	520
2	0	0	0	0	516
3	0	0	0	0	512
4	0	0	0	0	524
5	0	0	0	0	512
6	0	0	0	0	511
7	0	0	0	0	510
8	0	0	0	0	519
9	0	0	0	0	502
10	0	0	0	0	554
11	0	0	0	0	507
12	0	0	0	0	503
13	0	0	0	0	514
14	0	0	0	0	510
15	0	0	0	0	515
0	0	0	0	0	519
1	0	0	0	0	519
2	0	0	0	0	515
3	0	0	0	0	518
4	0	0	0	0	516
5	0	0	0	0	524
6	0	0	0	0	497
7	0	0	0	0	523
8	0	0	0	0	514
9	0	0	0	0	502
10	0	0	0	0	513
11	0	0	0	0	528
12	0	0	0	0	512
13	0	0	0	0	512
14	0	0	0	0	508
15	0	0	0	0	523
0	0	0	0	0	515
1	0	0	0	0	520
2	0	0	0	0	526
3	0	0	0	0	529
4	0	0	0	0	506
5	0	0	0	0	515
6	0	0	0	0	510
7	0	0	0	0	509
8	0	0	0	0	526
9	0	0	0	0	511
10	0	0	0	0	527
11	0	0	0	0	512
12	0	0	0	0	502
13	0	0	0	0	526
14	0	0	0	0	518
15	0	0	0	0	521
0	0	0	0	0	505
1	0	0	0	0	515
2	0	0	0	0	540
3	0	0	0	0	518
4	0	0	0	0	505
5	0	0	0	0	515
6	0	0	0	0	521
7	0	0	0	0	523
8	0	0	0	0	516
9	0	0	0	0	518
10	0	0	0	0	529
11	0	0	0	0	519
12	0	0	0	0	517
13	0	0	0	0	526
14	0	0	0	0	511
15	0	0	0	0	531
0	0	0	0	0	517
1	0	0	0	0	508
2	0	0	0	0	515
3	0	0	0	0	530
4	0	0	0	0	515
