# OpenSignals Text File Format
# {"CC:78:AB:5E:9D:17":{"sensor":["EMGBITREV","RAW","RAW","RAW","RAW","RAW"],"device name":"CC:78:AB:5E:9D:17","column":["nSeq","I1","I2","O1","O2","A1","A2","A3","A4","A5","A6"],"sync interval":2,"time":"12:44:33","comments":"","device connection":"BLECC:78:AB:5E:9D:17","channels":[1,2,3,4,5,6],"date":"2022-05-11","mode":0,"digital IO":[0,0,1,1],"firmware version":0,"device":"bitalino_rev","position":0,"sampling rate":100,"label":["A1","A2","A3","A4","A5","A6"],"resolution":[10,10,10,10,6,6],"special":[{},{},{},{},{},{}]}}
# EndOfHeader
0	0	0	0	0	515	524	0	520	38	6
1	0	0	0	0	512	524	0	520	38	6
2	0	0	0	0	525	518	0	519	38	6
3	0	0	0	0	517	520	0	519	38	6
4	0	0	0	0	509	519	0	517	38	6
5	0	0	0	0	511	521	0	517	38	6
6	0	0	0	0	515	523	0	520	39	6
7	0	0	0	0	524	523	0	524	39	6
8	0	0	0	0	518	524	0	518	39	6
9	0	0	0	0	512	528	0	521	38	6
10	0	0	0	0	527	527	0	523	38	6
11	0	0	0	0	496	524	0	533	38	6
12	0	0	0	0	515	520	0	518	38	6
13	0	0	0	0	508	514	0	524	38	6
14	0	0	0	0	508	508	0	527	38	6
15	0	0	0	0	523	501	0	525	39	6
0	0	0	0	0	507	492	0	524	39	6
1	0	0	0	0	518	481	0	524	39	6
2	0	0	0	0	511	473	0	524	39	6
3	0	0	0	0	521	465	0	521	39	6
4	0	0	0	0	538	461	0	522	38	6
5	0	0	0	0	507	460	0	525	38	6
6	0	0	0	0	512	461	0	529	38	6
7	0	0	0	0	524	456	0	523	39	6
8	0	0	0	0	508	459	0	526	39	6
9	0	0	0	0	522	459	0	514	38	6
10	0	0	0	0	514	461	0	522	38	6
11	0	0	0	0	503	462	0	517	38	6
12	0	0	0	0	517	464	0	516	38	6
13	0	0	0	0	507	468	0	523	36	6
14	0	0	0	0	521	468	0	524	38	6
15	0	0	0	0	523	475	0	520	38	6
0	0	0	0	0	502	477	0	534	38	6
1	0	0	0	0	520	479	0	518	38	6
2	0	0	0	0	497	486	0	525	38	6
3	0	0	0	0	538	487	0	517	38	6
4	0	0	0	0	509	492	0	516	38	6
5	0	0	0	0	519	495	0	515	38	6
6	0	0	0	0	519	499	0	517	38	6
7	0	0	0	0	508	503	0	525	39	6
8	0	0	0	0	511	507	0	517	38	6
9	0	0	0	0	536	510	0	521	38	6
10	0	0	0	0	509	509	0	519	38	6
11	0	0	0	0	500	510	0	518	39	6
12	0	0	0	0	499	511	0	522	38	6
13	0	0	0	0	513	513	0	522	38	6
14	0	0	0	0	513	514	0	519	38	6
15	0	0	0	0	512	513	0	515	38	6
0	0	0	0	0	527	518	0	519	37	6
1	0	0	0	0	508	517	0	536	37	6
2	0	0	0	0	522	519	0	518	37	6
3	0	0	0	0	507	521	0	513	38	6
4	0	0	0	0	512	523	0	517	38	6
5	0	0	0	0	519	524	0	510	38	6
6	0	0	0	0	510	528	0	514	39	6
7	0	0	0	0	514	529	0	512	38	6
8	0	0	0	0	516	524	0	515	38	6
9	0	0	0	0	518	529	0	509	38	6
10	0	0	0	0	515	529	0	514	38	6
11	0	0	0	0	513	526	0	517	39	6
12	0	0	0	0	519	528	0	515	38	6
13	0	0	0	0	521	528	0	518	38	6
14	0	0	0	0	498	529	0	517	37	6
15	0	0	0	0	523	529	0	517	39	6
0	0	0	0	0	517	527	0	515	38	6
1	0	0	0	0	510	527	0	519	38	6
2	0	0	0	0	509	526	0	521	38	6
3	0	0	0	0	521	524	0	514	38	6
4	0	0	0	0	507	523	0	515	38	6
5	0	0	0	0	520	522	0	515	38	6
6	0	0	0	0	507	523	0	515	38	6
7	0	0	0	0	513	523	0	511	38	6
8	0	0	0	0	519	523	0	517	38	6
9	0	0	0	0	515	524	0	510	38	6
10	0	0	0	0	527	526	0	515	38	6
11	0	0	0	0	506	526	0	515	39	6
12	0	0	0	0	513	527	0	520	38	6
13	0	0	0	0	513	528	0	512	38	6
14	0	0	0	0	506	527	0	516	38	6
15	0	0	0	0	526	527	0	519	38	6
0	0	0	0	0	499	527	0	515	38	6
1	0	0	0	0	507	525	0	514	38	6
2	0	0	0	0	511	527	0	519	38	6
3	0	0	0	0	509	525	0	516	38	6
4	0	0	0	0	525	525	0	515	38	6
5	0	0	0	0	507	524	0	522	38	6
6	0	0	0	0	527	521	0	515	38	6
7	0	0	0	0	494	517	0	515	38	6
8	0	0	0	0	484	517	0	516	38	6
9	0	0	0	0	543	516	0	524	38	6
10	0	0	0	0	515	514	0	515	38	6
11	0	0	0	0	518	511	0	514	38	6
12	0	0	0	0	527	511	0	516	38	6
13	0	0	0	0	506	506	0	517	38	6
14	0	0	0	0	536	504	0	519	38	6
15	0	0	0	0	531	506	0	535	38	6
0	0	0	0	0	501	506	0	519	38	6
1	0	0	0	0	498	503	0	525	38	6
2	0	0	0	0	502	504	0	517	38	6
3	0	0	0	0	531	501	0	521	39	6
4	0	0	0	0	518	505	0	514	39	6
5	0	0	0	0	527	505	0	514	39	6
6	0	0	0	0	535	503	0	514	38	6
7	0	0	0	0	508	508	0	523	39	6
8	0	0	0	0	504	506	0	516	38	6
9	0	0	0	0	489	509	0	521	38	6
10	0	0	0	0	503	510	0	516	38	6
11	0	0	0	0	510	510	0	513	38	6
12	0	0	0	0	539	507	0	516	38	6
13	0	0	0	0	524	511	0	515	38	6
14	0	0	0	0	516	512	0	513	38	6
15	0	0	0	0	527	511	0	518	39	6
0	0	0	0	0	505	511	0	515	38	6
1	0	0	0	0	503	511	0	522	38	6
2	0	0	0	0	555	513	0	511	38	6
3	0	0	0	0	520	515	0	516	38	6
4	0	0	0	0	506	520	0	519	38	6
5	0	0	0	0	509	518	0	513	38	6
6	0	0	0	0	498	519	0	513	38	6
7	0	0	0	0	520	518	0	510	38	5
8	0	0	0	0	511	519	0	514	37	5
9	0	0	0	0	499	518	0	510	38	5
10	0	0	0	0	526	518	0	511	38	5
11	0	0	0	0	499	517	0	514	38	5
12	0	0	0	0	535	521	0	509	38	5
13	0	0	0	0	536	521	0	513	38	5
14	0	0	0	0	499	519	0	511	38	5
15	0	0	0	0	527	518	0	508	38	5
0	0	0	0	0	537	519	0	514	38	5
1	0	0	0	0	522	516	0	513	38	5
2	0	0	0	0	511	518	0	514	38	5
3	0	0	0	0	532	520	0	515	38	5
4	0	0	0	0	497	519	0	509	37	5
5	0	0	0	0	503	518	0	513	38	5
6	0	0	0	0	505	518	0	514	38	5
7	0	0	0	0	512	520	0	515	38	5
8	0	0	0	0	513	521	0	514	38	5
9	0	0	0	0	517	520	0	510	38	5
10	0	0	0	0	518	520	0	512	38	5
11	0	0	0	0	504	519	0	514	38	5
12	0	0	0	0	527	522	0	511	37	5
13	0	0	0	0	518	523	0	505	38	5
14	0	0	0	0	508	522	0	504	39	5
15	0	0	0	0	512	523	0	503	39	5
0	0	0	0	0	512	523	0	508	39	5
1	0	0	0	0	512	522	0	510	39	5
2	0	0	0	0	518	524	0	516	39	5
3	0	0	0	0	517	520	0	513	39	5
4	0	0	0	0	513	521	0	517	39	5
5	0	0	0	0	508	521	0	510	39	4
6	0	0	0	0	512	519	0	509	37	4
7	0	0	0	0	532	518	0	504	39	4
8	0	0	0	0	499	516	0	504	39	4
9	0	0	0	0	515	521	0	505	39	4
10	0	0	0	0	516	524	0	505	37	4
11	0	0	0	0	521	523	0	507	37	4
12	0	0	0	0	523	531	0	501	37	4
13	0	0	0	0	498	527	0	506	38	4
14	0	0	0	0	503	529	0	505	37	4
15	0	0	0	0	513	529	0	510	36	4
0	0	0	0	0	516	525	0	508	37	4
1	0	0	0	0	523	528	0	509	37	4
2	0	0	0	0	504	527	0	510	38	4
3	0	0	0	0	528	521	0	510	44	4
4	0	0	0	0	512	520	0	513	43	4
5	0	0	0	0	514	519	0	509	41	4
6	0	0	0	0	523	519	0	508	39	4
7	0	0	0	0	529	517	0	512	38	4
8	0	0	0	0	523	516	0	513	37	4
9	0	0	0	0	505	515	0	515	36	4
10	0	0	0	0	507	516	0	512	35	4
11	0	0	0	0	517	514	0	513	36	4
12	0	0	0	0	512	515	0	515	36	4
13	0	0	0	0	517	513	0	518	36	4
14	0	0	0	0	517	514	0	515	36	4
15	0	0	0	0	506	516	0	515	37	4
0	0	0	0	0	525	518	0	517	38	4
1	0	0	0	0	508	518	0	522	39	4
2	0	0	0	0	524	518	0	513	40	4
3	0	0	0	0	520	520	0	506	40	4
4	0	0	0	0	532	519	0	511	40	4
5	0	0	0	0	524	517	0	504	39	4
6	0	0	0	0	503	521	0	525	38	4
7	0	0	0	0	509	520	0	514	37	4
8	0	0	0	0	494	518	0	510	37	4
9	0	0	0	0	509	518	0	510	36	4
10	0	0	0	0	507	519	0	514	36	4
11	0	0	0	0	524	520	0	514	37	4
12	0	0	0	0	508	518	0	515	37	4
13	0	0	0	0	513	519	0	510	38	4
14	0	0	0	0	499	524	0	513	40	4
15	0	0	0	0	515	523	0	509	40	4
0	0	0	0	0	511	524	0	507	39	4
1	0	0	0	0	513	526	0	509	39	4
2	0	0	0	0	519	529	0	508	38	4
3	0	0	0	0	529	533	0	509	37	4
4	0	0	0	0	509	531	0	509	37	4
5	0	0	0	0	500	526	0	510	37	4
6	0	0	0	0	547	524	0	508	38	4
7	0	0	0	0	528	523	0	510	39	4
8	0	0	0	0	508	519	0	514	39	4
9	0	0	0	0	515	515	0	506	40	4
10	0	0	0	0	521	515	0	512	40	4
11	0	0	0	0	520	509	0	516	40	4
12	0	0	0	0	508	512	0	512	39	4
13	0	0	0	0	512	511	0	511	38	4
14	0	0	0	0	526	510	0	516	38	4
15	0	0	0	0	521	512	0	514	38	4
0	0	0	0	0	514	507	0	515	38	4
1	0	0	0	0	507	511	0	513	38	4
2	0	0	0	0	510	513	0	515	38	4
3	0	0	0	0	525	510	0	513	38	4
4	0	0	0	0	515	508	0	520	39	4
5	0	0	0	0	527	508	0	518	39	4
6	0	0	0	0	524	509	0	513	39	4
7	0	0	0	0	515	508	0	511	40	4
8	0	0	0	0	519	512	0	513	39	4
9	0	0	0	0	513	512	0	518	39	4
10	0	0	0	0	512	518	0	515	38	4
11	0	0	0	0	521	518	0	518	37	4
12	0	0	0	0	515	519	0	516	36	4
13	0	0	0	0	520	525	0	523	36	4
14	0	0	0	0	519	526	0	518	37	4
15	0	0	0	0	509	527	0	518	38	4
0	0	0	0	0	533	529	0	514	39	4
1	0	0	0	0	514	528	0	514	40	4
2	0	0	0	0	497	527	0	509	40	4
3	0	0	0	0	519	527	0	512	39	4
4	0	0	0	0	508	525	0	513	39	4
5	0	0	0	0	512	523	0	509	38	4
6	0	0	0	0	508	520	0	514	37	4
7	0	0	0	0	515	511	0	518	37	4
8	0	0	0	0	507	504	0	515	37	4
9	0	0	0	0	515	499	0	513	37	4
10	0	0	0	0	503	494	0	506	38	4
11	0	0	0	0	505	491	0	512	39	4
12	0	0	0	0	526	487	0	515	40	4
13	0	0	0	0	511	495	0	515	40	4
14	0	0	0	0	503	494	0	512	39	4
15	0	0	0	0	518	495	0	513	39	4
0	0	0	0	0	512	500	0	513	38	4
1	0	0	0	0	515	506	0	514	37	4
2	0	0	0	0	521	507	0	510	36	4
3	0	0	0	0	498	510	0	511	37	4
4	0	0	0	0	525	511	0	510	37	4
5	0	0	0	0	520	511	0	517	37	4
6	0	0	0	0	520	510	0	508	38	4
7	0	0	0	0	514	511	0	517	39	4
8	0	0	0	0	516	516	0	511	40	4
9	0	0	0	0	513	518	0	508	40	4
10	0	0	0	0	506	523	0	511	40	4
11	0	0	0	0	521	525	0	505	39	4
12	0	0	0	0	523	527	0	509	38	4
13	0	0	0	0	527	531	0	509	38	4
14	0	0	0	0	512	532	0	518	37	4
15	0	0	0	0	519	532	0	511	38	4
0	0	0	0	0	512	536	0	524	38	4
1	0	0	0	0	525	540	0	508	38	4
2	0	0	0	0	516	540	0	511	38	4
3	0	0	0	0	503	540	0	514	39	4
4	0	0	0	0	521	543	0	513	39	4
5	0	0	0	0	513	541	0	515	39	4
6	0	0	0	0	519	542	0	520	39	4
7	0	0	0	0	512	545	0	514	39	4
8	0	0	0	0	510	544	0	513	39	4
9	0	0	0	0	516	541	0	515	39	4
10	0	0	0	0	522	542	0	518	39	4
11	0	0	0	0	519	539	0	516	39	4
12	0	0	0	0	518	539	0	519	38	4
13	0	0	0	0	650	539	0	515	38	4
14	0	0	0	0	617	538	0	520	38	4
15	0	0	0	0	545	531	0	521	38	4
0	0	0	0	0	493	530	0	522	38	4
1	0	0	0	0	504	529	0	518	38	4
2	0	0	0	0	493	524	0	515	39	4
3	0	0	0	0	498	522	0	519	39	4
4	0	0	0	0	495	522	0	519	39	4
5	0	0	0	0	503	524	0	521	39	4
6	0	0	0	0	502	523	0	516	38	4
7	0	0	0	0	501	524	0	511	38	4
8	0	0	0	0	511	526	0	521	37	4
9	0	0	0	0	511	526	0	518	38	4
10	0	0	0	0	496	524	0	521	38	4
11	0	0	0	0	508	520	0	519	39	4
12	0	0	0	0	502	521	0	511	38	4
13	0	0	0	0	514	521	0	515	38	4
14	0	0	0	0	504	516	0	513	38	4
15	0	0	0	0	511	517	0	512	38	5
0	0	0	0	0	508	515	0	519	38	5
1	0	0	0	0	511	513	0	513	38	5
2	0	0	0	0	503	512	0	508	38	5
3	0	0	0	0	508	516	0	510	38	5
4	0	0	0	0	509	516	0	516	38	5
5	0	0	0	0	518	515	0	512	38	5
6	0	0	0	0	507	515	0	521	38	5
7	0	0	0	0	524	515	0	502	38	5
8	0	0	0	0	508	517	0	508	38	5
9	0	0	0	0	527	518	0	507	38	5
10	0	0	0	0	519	516	0	510	38	5
11	0	0	0	0	523	519	0	507	38	5
12	0	0	0	0	512	518	0	509	38	5
13	0	0	0	0	515	516	0	507	38	5
14	0	0	0	0	513	513	0	506	38	5
15	0	0	0	0	516	516	0	499	38	5
0	0	0	0	0	525	513	0	503	38	5
1	0	0	0	0	503	514	0	515	37	5
2	0	0	0	0	515	513	0	508	37	5
3	0	0	0	0	535	510	0	508	38	5
4	0	0	0	0	519	510	0	506	38	5
5	0	0	0	0	523	509	0	507	38	5
6	0	0	0	0	518	507	0	513	38	5
7	0	0	0	0	515	507	0	504	38	5
8	0	0	0	0	505	506	0	502	38	5
9	0	0	0	0	519	506	0	502	38	5
10	0	0	0	0	502	508	0	493	38	5
11	0	0	0	0	531	505	0	515	38	5
12	0	0	0	0	497	507	0	509	39	5
13	0	0	0	0	505	512	0	517	39	5
14	0	0	0	0	503	511	0	507	39	5
15	0	0	0	0	511	511	0	502	39	5
0	0	0	0	0	527	511	0	506	38	5
1	0	0	0	0	515	517	0	504	38	5
2	0	0	0	0	509	519	0	499	37	5
3	0	0	0	0	509	517	0	502	37	5
4	0	0	0	0	510	517	0	503	37	5
5	0	0	0	0	519	519	0	504	38	5
6	0	0	0	0	553	521	0	501	39	5
7	0	0	0	0	511	519	0	501	39	5
8	0	0	0	0	507	521	0	506	39	5
9	0	0	0	0	495	522	0	505	39	5
10	0	0	0	0	490	521	0	510	38	5
11	0	0	0	0	496	521	0	500	38	5
12	0	0	0	0	508	520	0	502	37	5
13	0	0	0	0	515	519	0	508	37	5
14	0	0	0	0	516	515	0	512	36	5
15	0	0	0	0	531	508	0	513	36	5
0	0	0	0	0	511	507	0	505	36	5
1	0	0	0	0	522	501	0	509	37	5
2	0	0	0	0	520	492	0	505	38	5
3	0	0	0	0	515	484	0	502	39	5
4	0	0	0	0	506	470	0	500	39	5
5	0	0	0	0	518	464	0	495	39	5
6	0	0	0	0	523	451	0	506	39	5
7	0	0	0	0	512	445	0	505	38	5
8	0	0	0	0	516	437	0	502	37	5
9	0	0	0	0	518	433	0	499	37	5
10	0	0	0	0	505	427	0	505	37	5
11	0	0	0	0	515	427	0	501	38	5
12	0	0	0	0	522	428	0	496	38	5
13	0	0	0	0	506	428	0	496	39	5
14	0	0	0	0	521	433	0	497	39	5
15	0	0	0	0	524	432	0	498	39	5
0	0	0	0	0	507	434	0	504	39	5
1	0	0	0	0	531	439	0	504	38	5
2	0	0	0	0	503	444	0	508	37	5
3	0	0	0	0	540	453	0	501	37	5
4	0	0	0	0	503	463	0	505	37	5
5	0	0	0	0	509	468	0	509	37	5
6	0	0	0	0	527	474	0	506	38	5
7	0	0	0	0	495	475	0	507	39	5
8	0	0	0	0	520	472	0	503	39	5
9	0	0	0	0	518	473	0	507	38	5
10	0	0	0	0	514	476	0	506	38	5
11	0	0	0	0	521	477	0	500	38	5
12	0	0	0	0	520	482	0	506	37	5
13	0	0	0	0	514	481	0	513	37	5
14	0	0	0	0	515	479	0	510	36	5
15	0	0	0	0	513	480	0	504	37	5
0	0	0	0	0	512	482	0	511	37	5
1	0	0	0	0	515	482	0	507	37	5
2	0	0	0	0	504	482	0	507	38	5
3	0	0	0	0	512	481	0	505	38	5
4	0	0	0	0	515	483	0	500	39	5
5	0	0	0	0	495	484	0	504	39	5
6	0	0	0	0	543	489	0	498	38	5
7	0	0	0	0	522	492	0	506	38	5
8	0	0	0	0	530	495	0	495	37	5
9	0	0	0	0	515	496	0	499	37	5
10	0	0	0	0	518	502	0	499	37	5
11	0	0	0	0	504	502	0	508	37	5
12	0	0	0	0	507	504	0	503	37	5
13	0	0	0	0	478	509	0	505	37	5
14	0	0	0	0	469	514	0	507	38	5
15	0	0	0	0	489	514	0	511	38	5
0	0	0	0	0	479	517	0	504	38	5
1	0	0	0	0	489	522	0	503	38	5
2	0	0	0	0	517	523	0	503	39	5
3	0	0	0	0	518	521	0	504	39	5
4	0	0	0	0	525	528	0	505	39	5
5	0	0	0	0	519	527	0	509	39	5
6	0	0	0	0	526	527	0	507	38	5
7	0	0	0	0	522	534	0	508	38	5
8	0	0	0	0	540	539	0	511	37	5
9	0	0	0	0	486	541	0	512	37	5
10	0	0	0	0	543	542	0	513	38	5
11	0	0	0	0	543	543	0	516	38	5
12	0	0	0	0	536	546	0	513	38	5
13	0	0	0	0	531	547	0	514	39	5
14	0	0	0	0	498	548	0	515	39	5
15	0	0	0	0	510	548	0	510	39	5
0	0	0	0	0	537	552	0	519	39	5
1	0	0	0	0	521	547	0	514	39	5
2	0	0	0	0	554	549	0	514	38	5
3	0	0	0	0	496	553	0	511	38	5
4	0	0	0	0	529	548	0	511	37	5
5	0	0	0	0	509	548	0	515	37	5
6	0	0	0	0	510	549	0	519	38	5
7	0	0	0	0	509	544	0	521	38	5
8	0	0	0	0	518	544	0	515	38	5
9	0	0	0	0	503	545	0	517	39	5
10	0	0	0	0	521	543	0	521	39	5
11	0	0	0	0	522	547	0	519	38	5
12	0	0	0	0	525	543	0	519	38	6
13	0	0	0	0	524	541	0	512	37	6
14	0	0	0	0	524	541	0	515	37	6
15	0	0	0	0	528	536	0	514	37	6
0	0	0	0	0	505	537	0	510	37	6
1	0	0	0	0	495	535	0	507	38	6
2	0	0	0	0	522	536	0	507	38	6
3	0	0	0	0	513	536	0	507	39	6
4	0	0	0	0	519	532	0	512	39	6
5	0	0	0	0	508	532	0	510	40	6
6	0	0	0	0	515	531	0	510	39	6
7	0	0	0	0	509	529	0	508	39	6
8	0	0	0	0	520	529	0	512	38	6
9	0	0	0	0	529	528	0	511	37	5
10	0	0	0	0	512	527	0	511	36	5
11	0	0	0	0	522	525	0	504	37	5
12	0	0	0	0	517	523	0	509	36	5
13	0	0	0	0	512	523	0	508	37	5
14	0	0	0	0	513	521	0	511	37	5
15	0	0	0	0	533	522	0	510	39	5
0	0	0	0	0	513	519	0	509	39	5
1	0	0	0	0	511	521	0	515	39	5
2	0	0	0	0	516	523	0	508	39	5
3	0	0	0	0	511	518	0	517	39	5
4	0	0	0	0	528	520	0	511	38	5
5	0	0	0	0	504	522	0	512	37	5
6	0	0	0	0	515	522	0	513	37	5
7	0	0	0	0	510	522	0	510	38	5
8	0	0	0	0	508	522	0	510	38	5
9	0	0	0	0	515	526	0	524	39	5
10	0	0	0	0	524	527	0	510	39	5
11	0	0	0	0	514	527	0	511	39	5
12	0	0	0	0	513	531	0	512	39	5
13	0	0	0	0	523	526	0	518	39	5
14	0	0	0	0	516	526	0	513	38	5
15	0	0	0	0	512	527	0	508	38	5
0	0	0	0	0	520	529	0	512	37	5
1	0	0	0	0	508	528	0	507	37	5
2	0	0	0	0	514	524	0	513	37	5
3	0	0	0	0	523	521	0	511	38	5
4	0	0	0	0	517	526	0	509	38	5
5	0	0	0	0	531	525	0	512	38	5
6	0	0	0	0	494	522	0	511	38	5
7	0	0	0	0	506	522	0	509	38	5
8	0	0	0	0	523	523	0	511	38	5
9	0	0	0	0	507	522	0	512	38	5
10	0	0	0	0	511	520	0	512	38	5
11	0	0	0	0	519	522	0	513	38	5
12	0	0	0	0	503	518	0	512	37	5
13	0	0	0	0	523	516	0	509	37	5
14	0	0	0	0	526	520	0	508	37	5
15	0	0	0	0	515	515	0	511	38	5
0	0	0	0	0	517	513	0	509	37	5
1	0	0	0	0	511	518	0	505	37	5
2	0	0	0	0	513	519	0	505	38	5
3	0	0	0	0	519	519	0	513	38	5
4	0	0	0	0	515	522	0	512	38	5
5	0	0	0	0	503	520	0	512	38	5
6	0	0	0	0	532	519	0	525	38	5
7	0	0	0	0	510	516	0	511	38	5
8	0	0	0	0	521	518	0	513	38	5
9	0	0	0	0	521	518	0	510	38	5
10	0	0	0	0	517	513	0	510	38	5
11	0	0	0	0	511	515	0	511	38	5
12	0	0	0	0	516	515	0	509	38	5
13	0	0	0	0	508	512	0	511	38	5
14	0	0	0	0	525	513	0	511	37	5
15	0	0	0	0	523	513	0	513	39	6
0	0	0	0	0	513	515	0	511	39	6
1	0	0	0	0	524	514	0	512	39	6
2	0	0	0	0	506	515	0	514	40	6
3	0	0	0	0	511	511	0	516	40	6
4	0	0	0	0	537	512	0	516	39	6
5	0	0	0	0	506	513	0	529	38	6
6	0	0	0	0	521	516	0	516	38	5
7	0	0	0	0	512	515	0	518	38	6
8	0	0	0	0	516	516	0	518	38	6
9	0	0	0	0	531	517	0	520	39	6
10	0	0	0	0	516	519	0	514	38	6
11	0	0	0	0	525	521	0	514	39	6
12	0	0	0	0	507	522	0	522	39	6
13	0	0	0	0	520	525	0	518	39	6
14	0	0	0	0	511	522	0	517	39	6
15	0	0	0	0	509	522	0	513	38	6
0	0	0	0	0	513	522	0	510	38	6
1	0	0	0	0	533	527	0	515	38	6
2	0	0	0	0	517	524	0	513	38	6
3	0	0	0	0	481	525	0	513	38	6
4	0	0	0	0	529	523	0	514	38	6
5	0	0	0	0	521	524	0	515	39	6
6	0	0	0	0	513	525	0	511	39	6
7	0	0	0	0	514	522	0	512	39	6
8	0	0	0	0	514	523	0	510	39	6
9	0	0	0	0	519	519	0	518	39	6
10	0	0	0	0	515	524	0	512	38	6
11	0	0	0	0	519	523	0	512	38	6
12	0	0	0	0	527	519	0	515	38	6
13	0	0	0	0	505	523	0	515	38	6
14	0	0	0	0	504	521	0	518	38	6
15	0	0	0	0	521	523	0	519	39	6
0	0	0	0	0	525	519	0	518	39	5
1	0	0	0	0	503	521	0	519	39	5
2	0	0	0	0	511	519	0	524	39	5
3	0	0	0	0	524	519	0	520	39	5
4	0	0	0	0	519	517	0	522	38	5
5	0	0	0	0	512	517	0	525	38	5
6	0	0	0	0	510	512	0	525	38	5
7	0	0	0	0	518	516	0	524	38	5
8	0	0	0	0	514	513	0	523	37	5
9	0	0	0	0	519	512	0	518	37	5
10	0	0	0	0	515	515	0	519	37	5
11	0	0	0	0	518	515	0	517	38	5
12	0	0	0	0	511	513	0	515	38	5
13	0	0	0	0	517	514	0	508	38	5
14	0	0	0	0	500	510	0	517	39	5
15	0	0	0	0	519	512	0	512	40	5
0	0	0	0	0	514	511	0	516	39	5
1	0	0	0	0	509	512	0	518	39	5
2	0	0	0	0	514	510	0	513	38	5
3	0	0	0	0	521	512	0	516	37	5
4	0	0	0	0	519	515	0	516	37	5
5	0	0	0	0	509	514	0	513	37	5
6	0	0	0	0	518	513	0	511	37	5
7	0	0	0	0	516	516	0	516	37	5
8	0	0	0	0	521	513	0	512	37	5
9	0	0	0	0	512	514	0	519	38	5
10	0	0	0	0	511	513	0	518	38	5
11	0	0	0	0	527	512	0	520	39	5
12	0	0	0	0	513	511	0	515	38	5
13	0	0	0	0	505	514	0	517	38	5
14	0	0	0	0	516	514	0	507	38	5
15	0	0	0	0	514	510	0	515	38	5
0	0	0	0	0	512	507	0	515	37	5
1	0	0	0	0	505	508	0	516	37	5
2	0	0	0	0	519	506	0	513	38	5
3	0	0	0	0	502	510	0	513	38	5
4	0	0	0	0	526	511	0	510	38	5
5	0	0	0	0	518	512	0	515	38	5
6	0	0	0	0	524	511	0	513	38	5
7	0	0	0	0	503	511	0	513	39	5
8	0	0	0	0	519	508	0	509	39	5
9	0	0	0	0	514	509	0	511	39	5
10	0	0	0	0	515	511	0	518	39	5
11	0	0	0	0	515	512	0	511	38	5
12	0	0	0	0	520	512	0	512	38	5
13	0	0	0	0	508	513	0	516	37	5
14	0	0	0	0	512	512	0	510	37	5
15	0	0	0	0	495	514	0	517	37	5
0	0	0	0	0	520	513	0	519	37	5
1	0	0	0	0	512	516	0	514	38	5
2	0	0	0	0	530	513	0	510	38	5
3	0	0	0	0	511	515	0	513	38	5
4	0	0	0	0	523	518	0	509	38	5
5	0	0	0	0	514	517	0	511	39	5
6	0	0	0	0	510	515	0	511	39	5
7	0	0	0	0	512	514	0	510	39	5
8	0	0	0	0	527	517	0	512	39	5
9	0	0	0	0	526	513	0	514	38	5
10	0	0	0	0	527	517	0	510	38	5
11	0	0	0	0	510	515	0	512	38	5
12	0	0	0	0	516	516	0	515	38	5
13	0	0	0	0	543	518	0	521	38	5
14	0	0	0	0	513	518	0	516	38	5
15	0	0	0	0	504	514	0	514	39	5
0	0	0	0	0	537	518	0	520	39	5
1	0	0	0	0	508	517	0	517	39	5
2	0	0	0	0	516	514	0	510	39	5
3	0	0	0	0	515	516	0	511	39	5
4	0	0	0	0	510	514	0	523	39	5
5	0	0	0	0	512	519	0	526	39	5
6	0	0	0	0	513	514	0	525	39	5
7	0	0	0	0	508	515	0	519	39	5
8	0	0	0	0	522	514	0	519	38	5
9	0	0	0	0	511	516	0	510	38	5
10	0	0	0	0	500	518	0	523	38	5
11	0	0	0	0	527	515	0	526	38	5
12	0	0	0	0	512	515	0	515	38	5
13	0	0	0	0	499	514	0	510	38	5
14	0	0	0	0	534	514	0	514	38	5
15	0	0	0	0	504	514	0	517	38	5
0	0	0	0	0	523	517	0	512	38	5
1	0	0	0	0	509	515	0	509	38	5
2	0	0	0	0	505	515	0	506	38	5
3	0	0	0	0	511	513	0	505	38	5
4	0	0	0	0	526	515	0	499	38	5
5	0	0	0	0	509	513	0	506	37	5
6	0	0	0	0	515	516	0	504	37	5
7	0	0	0	0	522	515	0	504	37	5
8	0	0	0	0	510	516	0	504	37	5
9	0	0	0	0	533	517	0	508	37	5
10	0	0	0	0	517	512	0	495	38	5
11	0	0	0	0	520	516	0	502	38	5
12	0	0	0	0	510	515	0	498	38	5
13	0	0	0	0	504	514	0	497	38	5
14	0	0	0	0	531	516	0	503	38	5
15	0	0	0	0	509	511	0	501	38	5
0	0	0	0	0	518	514	0	503	38	5
1	0	0	0	0	527	513	0	506	37	5
2	0	0	0	0	515	514	0	513	37	5
3	0	0	0	0	528	516	0	501	37	5
4	0	0	0	0	516	511	0	509	37	5
5	0	0	0	0	508	511	0	507	37	5
6	0	0	0	0	525	512	0	503	37	5
7	0	0	0	0	529	515	0	513	38	5
8	0	0	0	0	508	513	0	509	38	5
9	0	0	0	0	528	510	0	525	39	5
10	0	0	0	0	503	515	0	519	39	5
11	0	0	0	0	497	510	0	506	39	5
12	0	0	0	0	528	515	0	508	38	5
13	0	0	0	0	521	514	0	509	37	5
14	0	0	0	0	487	516	0	517	37	5
15	0	0	0	0	561	517	0	515	37	5
0	0	0	0	0	506	517	0	516	37	5
1	0	0	0	0	519	517	0	511	37	5
2	0	0	0	0	502	520	0	508	38	5
3	0	0	0	0	524	522	0	510	38	5
4	0	0	0	0	511	521	0	519	38	5
5	0	0	0	0	510	522	0	507	38	5
6	0	0	0	0	514	521	0	510	38	5
7	0	0	0	0	506	523	0	513	38	5
8	0	0	0	0	523	527	0	511	38	5
9	0	0	0	0	499	523	0	514	38	5
10	0	0	0	0	520	521	0	513	38	5
11	0	0	0	0	488	519	0	516	38	5
12	0	0	0	0	522	524	0	514	38	5
13	0	0	0	0	520	519	0	510	38	5
14	0	0	0	0	498	521	0	513	38	5
15	0	0	0	0	522	523	0	514	38	5
0	0	0	0	0	519	520	0	505	38	5
1	0	0	0	0	538	523	0	502	38	5
2	0	0	0	0	492	519	0	508	38	4
3	0	0	0	0	533	518	0	509	38	4
4	0	0	0	0	476	519	0	507	38	4
5	0	0	0	0	531	515	0	504	38	4
6	0	0	0	0	499	516	0	503	38	4
7	0	0	0	0	504	513	0	509	38	4
8	0	0	0	0	515	514	0	499	38	4
9	0	0	0	0	517	512	0	500	38	4
10	0	0	0	0	486	515	0	507	38	4
11	0	0	0	0	540	512	0	509	38	4
12	0	0	0	0	492	514	0	512	38	4
13	0	0	0	0	516	515	0	511	38	4
14	0	0	0	0	498	513	0	508	38	4
15	0	0	0	0	522	516	0	514	38	5
0	0	0	0	0	507	516	0	509	38	5
1	0	0	0	0	528	516	0	502	38	5
2	0	0	0	0	480	516	0	518	38	5
3	0	0	0	0	561	514	0	505	38	5
4	0	0	0	0	519	515	0	503	38	5
5	0	0	0	0	492	516	0	505	38	5
6	0	0	0	0	532	516	0	514	38	5
7	0	0	0	0	545	514	0	511	38	5
8	0	0	0	0	499	515	0	509	38	5
9	0	0	0	0	507	516	0	515	38	5
10	0	0	0	0	525	516	0	513	38	5
11	0	0	0	0	506	514	0	515	38	5
12	0	0	0	0	553	514	0	499	38	5
13	0	0	0	0	483	518	0	507	38	5
14	0	0	0	0	569	516	0	507	38	5
15	0	0	0	0	487	512	0	509	38	5
0	0	0	0	0	503	514	0	512	38	5
1	0	0	0	0	541	515	0	509	38	5
2	0	0	0	0	526	516	0	507	38	5
3	0	0	0	0	519	516	0	513	38	5
4	0	0	0	0	521	514	0	515	38	5
5	0	0	0	0	532	514	0	507	38	5
6	0	0	0	0	493	516	0	515	38	5
7	0	0	0	0	483	517	0	506	38	5
8	0	0	0	0	528	516	0	512	38	5
9	0	0	0	0	502	517	0	515	38	5
10	0	0	0	0	588	516	0	501	38	5
11	0	0	0	0	494	515	0	505	38	5
12	0	0	0	0	464	519	0	510	38	5
13	0	0	0	0	525	520	0	507	38	5
14	0	0	0	0	469	521	0	506	38	5
15	0	0	0	0	596	519	0	500	38	5
0	0	0	0	0	498	521	0	512	38	5
1	0	0	0	0	448	523	0	505	38	5
2	0	0	0	0	569	521	0	504	38	5
3	0	0	0	0	488	520	0	507	38	5
4	0	0	0	0	501	520	0	507	38	5
5	0	0	0	0	470	519	0	509	38	5
6	0	0	0	0	507	523	0	512	38	5
7	0	0	0	0	555	519	0	510	38	5
8	0	0	0	0	543	519	0	512	38	5
9	0	0	0	0	575	522	0	511	38	5
10	0	0	0	0	432	524	0	504	38	5
11	0	0	0	0	653	518	0	517	38	5
12	0	0	0	0	449	521	0	514	38	5
13	0	0	0	0	588	515	0	511	38	5
14	0	0	0	0	460	517	0	508	38	5
15	0	0	0	0	567	516	0	510	38	5
0	0	0	0	0	515	513	0	514	37	5
1	0	0	0	0	451	511	0	517	38	5
2	0	0	0	0	574	514	0	509	38	5
3	0	0	0	0	500	511	0	508	38	5
4	0	0	0	0	460	511	0	513	38	5
5	0	0	0	0	584	511	0	506	38	5
6	0	0	0	0	449	512	0	512	38	5
7	0	0	0	0	559	511	0	509	38	5
8	0	0	0	0	487	511	0	505	38	5
9	0	0	0	0	508	512	0	506	37	5
10	0	0	0	0	485	508	0	508	37	5
11	0	0	0	0	547	510	0	503	38	5
12	0	0	0	0	483	511	0	509	38	5
13	0	0	0	0	547	511	0	505	38	5
14	0	0	0	0	451	505	0	508	38	5
15	0	0	0	0	527	510	0	505	38	5
0	0	0	0	0	480	509	0	503	38	5
1	0	0	0	0	461	508	0	513	38	5
2	0	0	0	0	586	512	0	513	38	5
3	0	0	0	0	522	508	0	509	38	5
4	0	0	0	0	478	506	0	507	38	5
5	0	0	0	0	607	508	0	503	38	5
6	0	0	0	0	436	509	0	511	38	5
7	0	0	0	0	609	513	0	503	38	5
8	0	0	0	0	489	510	0	508	38	5
9	0	0	0	0	454	510	0	513	38	5
10	0	0	0	0	547	508	0	512	38	5
11	0	0	0	0	558	509	0	509	38	5
12	0	0	0	0	410	511	0	508	37	5
13	0	0	0	0	554	511	0	509	37	5
14	0	0	0	0	496	508	0	511	37	5
15	0	0	0	0	509	511	0	521	38	5
0	0	0	0	0	519	509	0	505	38	5
1	0	0	0	0	472	508	0	507	38	5
2	0	0	0	0	584	512	0	512	38	5
3	0	0	0	0	516	512	0	521	38	5
4	0	0	0	0	459	516	0	505	38	5
5	0	0	0	0	570	512	0	510	38	5
6	0	0	0	0	614	512	0	505	38	5
7	0	0	0	0	438	513	0	505	38	5
8	0	0	0	0	547	516	0	503	38	5
9	0	0	0	0	571	512	0	508	38	5
10	0	0	0	0	466	514	0	511	38	5
11	0	0	0	0	476	512	0	504	38	5
12	0	0	0	0	559	517	0	512	38	5
13	0	0	0	0	460	516	0	518	38	5
14	0	0	0	0	544	516	0	509	38	5
15	0	0	0	0	566	512	0	507	38	5
0	0	0	0	0	488	515	0	517	38	5
1	0	0	0	0	375	516	0	518	38	5
2	0	0	0	0	546	516	0	508	38	5
3	0	0	0	0	493	517	0	501	38	5
4	0	0	0	0	562	517	0	509	38	5
5	0	0	0	0	536	519	0	509	38	5
6	0	0	0	0	423	519	0	515	38	5
7	0	0	0	0	563	520	0	508	38	5
8	0	0	0	0	465	520	0	507	37	5
9	0	0	0	0	506	520	0	506	37	5
10	0	0	0	0	491	518	0	511	37	5
11	0	0	0	0	448	515	0	511	38	5
12	0	0	0	0	470	519	0	508	38	5
13	0	0	0	0	620	521	0	505	38	5
14	0	0	0	0	446	520	0	511	38	5
15	0	0	0	0	680	519	0	509	38	5
0	0	0	0	0	390	516	0	509	38	5
1	0	0	0	0	513	518	0	502	38	5
2	0	0	0	0	531	516	0	505	38	5
3	0	0	0	0	611	518	0	499	38	5
4	0	0	0	0	469	519	0	497	38	5
5	0	0	0	0	540	519	0	499	38	5
6	0	0	0	0	519	518	0	503	38	5
7	0	0	0	0	430	516	0	507	38	5
8	0	0	0	0	561	515	0	509	38	5
9	0	0	0	0	563	519	0	503	38	5
10	0	0	0	0	471	520	0	504	38	5
11	0	0	0	0	393	517	0	511	38	5
12	0	0	0	0	546	518	0	508	38	5
13	0	0	0	0	471	514	0	513	38	5
14	0	0	0	0	539	516	0	512	38	5
15	0	0	0	0	470	519	0	513	38	5
0	0	0	0	0	571	514	0	515	38	5
1	0	0	0	0	557	519	0	514	38	5
2	0	0	0	0	491	518	0	504	38	5
3	0	0	0	0	502	517	0	509	38	5
4	0	0	0	0	521	519	0	512	38	5
5	0	0	0	0	496	517	0	507	38	5
6	0	0	0	0	418	521	0	512	38	5
7	0	0	0	0	453	519	0	511	38	5
8	0	0	0	0	558	519	0	505	38	5
9	0	0	0	0	556	516	0	513	38	5
10	0	0	0	0	492	519	0	508	38	5
11	0	0	0	0	485	519	0	504	38	5
12	0	0	0	0	610	521	0	500	38	5
13	0	0	0	0	515	520	0	505	38	5
14	0	0	0	0	444	520	0	507	38	5
15	0	0	0	0	559	519	0	507	38	5
0	0	0	0	0	457	518	0	503	38	5
1	0	0	0	0	587	516	0	506	38	5
2	0	0	0	0	714	514	0	509	38	5
3	0	0	0	0	446	514	0	509	38	5
4	0	0	0	0	605	516	0	509	38	5
5	0	0	0	0	486	514	0	518	38	5
6	0	0	0	0	459	512	0	512	38	5
7	0	0	0	0	458	516	0	508	38	5
8	0	0	0	0	438	514	0	513	38	5
9	0	0	0	0	505	513	0	508	38	5
10	0	0	0	0	517	515	0	518	38	5
11	0	0	0	0	509	517	0	520	38	5
12	0	0	0	0	528	514	0	509	38	5
13	0	0	0	0	504	518	0	513	38	5
14	0	0	0	0	485	515	0	510	38	5
15	0	0	0	0	548	517	0	514	38	5
0	0	0	0	0	459	516	0	512	38	5
1	0	0	0	0	502	516	0	506	38	5
2	0	0	0	0	474	515	0	508	38	5
3	0	0	0	0	520	516	0	504	38	5
4	0	0	0	0	504	515	0	511	38	5
5	0	0	0	0	516	516	0	508	38	5
6	0	0	0	0	538	514	0	509	38	5
7	0	0	0	0	499	515	0	513	38	5
8	0	0	0	0	556	515	0	507	38	5
9	0	0	0	0	488	519	0	506	38	5
10	0	0	0	0	544	518	0	510	38	5
11	0	0	0	0	504	521	0	513	38	5
12	0	0	0	0	496	519	0	513	38	5
13	0	0	0	0	528	517	0	517	38	5
14	0	0	0	0	490	518	0	512	38	5
15	0	0	0	0	498	519	0	501	38	5
0	0	0	0	0	440	522	0	503	38	5
1	0	0	0	0	614	522	0	499	38	5
2	0	0	0	0	576	523	0	512	38	5
3	0	0	0	0	449	520	0	512	38	5
4	0	0	0	0	503	519	0	507	38	5
5	0	0	0	0	551	524	0	502	38	5
6	0	0	0	0	434	520	0	502	38	5
7	0	0	0	0	489	521	0	498	38	5
8	0	0	0	0	548	524	0	504	38	5
9	0	0	0	0	446	523	0	511	38	5
10	0	0	0	0	473	523	0	507	37	5
11	0	0	0	0	616	524	0	512	38	5
12	0	0	0	0	595	527	0	510	37	5
13	0	0	0	0	521	527	0	507	38	5
14	0	0	0	0	513	528	0	498	38	5
15	0	0	0	0	535	530	0	504	38	5
0	0	0	0	0	521	526	0	500	38	5
1	0	0	0	0	684	524	0	500	38	5
2	0	0	0	0	492	521	0	510	38	5
3	0	0	0	0	454	518	0	507	38	5
4	0	0	0	0	439	517	0	505	38	5
5	0	0	0	0	530	519	0	500	38	5
6	0	0	0	0	553	513	0	500	38	5
7	0	0	0	0	538	513	0	498	38	5
8	0	0	0	0	414	512	0	500	38	5
9	0	0	0	0	574	511	0	503	38	4
10	0	0	0	0	558	511	0	505	38	4
11	0	0	0	0	556	510	0	505	38	4
12	0	0	0	0	543	509	0	511	38	4
13	0	0	0	0	444	508	0	501	38	4
14	0	0	0	0	603	503	0	503	38	4
15	0	0	0	0	309	496	0	499	38	4
0	0	0	0	0	408	500	0	508	38	4
1	0	0	0	0	435	501	0	512	38	4
2	0	0	0	0	419	500	0	507	38	4
3	0	0	0	0	527	502	0	499	38	4
4	0	0	0	0	441	501	0	501	38	4
5	0	0	0	0	578	499	0	502	38	4
6	0	0	0	0	448	502	0	500	37	4
7	0	0	0	0	441	500	0	490	38	4
8	0	0	0	0	441	496	0	506	38	4
9	0	0	0	0	464	495	0	505	37	4
10	0	0	0	0	433	491	0	509	38	4
11	0	0	0	0	671	491	0	501	38	4
12	0	0	0	0	564	493	0	499	38	4
13	0	0	0	0	493	493	0	500	38	4
14	0	0	0	0	499	492	0	504	38	4
15	0	0	0	0	551	491	0	495	38	4
0	0	0	0	0	623	490	0	504	38	4
1	0	0	0	0	505	489	0	497	38	4
2	0	0	0	0	361	492	0	501	39	4
3	0	0	0	0	493	492	0	503	39	4
4	0	0	0	0	516	489	0	497	38	4
5	0	0	0	0	485	493	0	500	38	4
6	0	0	0	0	592	495	0	505	38	4
7	0	0	0	0	532	497	0	505	39	4
8	0	0	0	0	430	499	0	509	38	4
9	0	0	0	0	465	499	0	504	38	4
10	0	0	0	0	534	501	0	500	38	4
11	0	0	0	0	392	503	0	504	39	4
12	0	0	0	0	534	505	0	508	38	4
13	0	0	0	0	582	508	0	508	38	4
14	0	0	0	0	490	512	0	503	38	4
15	0	0	0	0	755	507	0	507	38	4
0	0	0	0	0	350	515	0	515	38	4
1	0	0	0	0	220	515	0	523	38	4
2	0	0	0	0	539	512	0	513	38	4
3	0	0	0	0	468	511	0	511	39	4
4	0	0	0	0	374	517	0	506	38	4
5	0	0	0	0	643	513	0	519	38	4
6	0	0	0	0	444	516	0	513	38	4
7	0	0	0	0	563	516	0	503	38	4
8	0	0	0	0	320	517	0	507	38	4
9	0	0	0	0	502	515	0	499	38	4
10	0	0	0	0	662	517	0	502	38	4
11	0	0	0	0	636	518	0	508	38	4
12	0	0	0	0	482	519	0	508	38	4
13	0	0	0	0	452	519	0	498	38	4
14	0	0	0	0	586	519	0	506	38	4
15	0	0	0	0	427	518	0	502	39	4
0	0	0	0	0	592	520	0	504	38	4
1	0	0	0	0	469	521	0	508	38	4
2	0	0	0	0	615	521	0	508	38	4
3	0	0	0	0	439	524	0	511	38	4
4	0	0	0	0	430	526	0	511	38	4
5	0	0	0	0	538	522	0	496	38	4
6	0	0	0	0	458	524	0	507	38	4
7	0	0	0	0	572	527	0	515	38	4
8	0	0	0	0	485	530	0	508	38	4
9	0	0	0	0	771	534	0	511	39	4
10	0	0	0	0	455	531	0	513	39	4
11	0	0	0	0	632	533	0	511	39	4
12	0	0	0	0	535	530	0	515	38	4
13	0	0	0	0	510	531	0	513	38	4
14	0	0	0	0	493	532	0	514	38	4
15	0	0	0	0	462	532	0	503	38	4
0	0	0	0	0	679	531	0	507	38	4
1	0	0	0	0	551	527	0	510	39	4
2	0	0	0	0	467	529	0	508	39	4
3	0	0	0	0	606	529	0	507	39	4
4	0	0	0	0	821	530	0	505	39	4
5	0	0	0	0	391	525	0	506	39	4
6	0	0	0	0	646	529	0	500	38	4
7	0	0	0	0	509	526	0	510	38	4
8	0	0	0	0	670	524	0	511	38	4
9	0	0	0	0	283	528	0	521	38	4
10	0	0	0	0	439	526	0	505	38	4
11	0	0	0	0	517	522	0	513	39	4
12	0	0	0	0	522	523	0	510	38	4
13	0	0	0	0	360	523	0	514	39	4
14	0	0	0	0	525	521	0	511	39	4
15	0	0	0	0	411	519	0	512	39	4
0	0	0	0	0	484	520	0	515	38	4
1	0	0	0	0	442	519	0	519	38	4
2	0	0	0	0	502	517	0	520	38	4
3	0	0	0	0	435	515	0	526	38	4
4	0	0	0	0	664	515	0	515	38	4
5	0	0	0	0	547	513	0	517	38	4
6	0	0	0	0	549	510	0	521	38	4
7	0	0	0	0	630	509	0	516	39	4
8	0	0	0	0	423	506	0	515	38	4
9	0	0	0	0	607	504	0	518	38	4
10	0	0	0	0	442	510	0	512	38	4
11	0	0	0	0	507	510	0	506	38	4
12	0	0	0	0	462	507	0	509	38	4
13	0	0	0	0	642	507	0	509	38	4
14	0	0	0	0	480	510	0	513	38	4
15	0	0	0	0	504	508	0	519	38	4
0	0	0	0	0	556	510	0	521	38	4
1	0	0	0	0	478	502	0	516	38	4
2	0	0	0	0	457	502	0	506	38	4
3	0	0	0	0	522	502	0	506	39	4
4	0	0	0	0	432	504	0	510	38	4
5	0	0	0	0	454	503	0	502	38	4
6	0	0	0	0	521	504	0	504	38	4
7	0	0	0	0	578	507	0	508	38	4
8	0	0	0	0	554	506	0	511	38	4
9	0	0	0	0	563	503	0	504	38	4
10	0	0	0	0	580	509	0	507	38	4
11	0	0	0	0	646	505	0	506	38	4
12	0	0	0	0	391	508	0	499	38	4
13	0	0	0	0	573	510	0	499	38	4
14	0	0	0	0	505	506	0	508	38	4
15	0	0	0	0	540	507	0	505	38	4
0	0	0	0	0	488	505	0	503	38	4
1	0	0	0	0	699	507	0	494	38	4
2	0	0	0	0	518	510	0	499	38	4
3	0	0	0	0	487	510	0	507	38	4
4	0	0	0	0	566	511	0	508	38	4
5	0	0	0	0	558	512	0	504	38	4
6	0	0	0	0	438	511	0	495	38	4
7	0	0	0	0	486	512	0	499	38	4
8	0	0	0	0	611	512	0	502	38	4
9	0	0	0	0	507	515	0	500	38	4
10	0	0	0	0	468	514	0	499	38	4
11	0	0	0	0	380	516	0	496	38	4
12	0	0	0	0	576	517	0	501	38	4
13	0	0	0	0	522	514	0	501	38	4
14	0	0	0	0	716	517	0	499	38	4
15	0	0	0	0	385	516	0	499	39	4
0	0	0	0	0	486	519	0	496	38	4
1	0	0	0	0	550	520	0	502	38	4
2	0	0	0	0	467	516	0	508	38	4
3	0	0	0	0	518	519	0	502	39	4
4	0	0	0	0	563	521	0	505	38	4
5	0	0	0	0	415	523	0	504	38	4
6	0	0	0	0	510	522	0	504	38	4
7	0	0	0	0	455	520	0	511	38	4
8	0	0	0	0	472	521	0	507	38	4
9	0	0	0	0	490	521	0	507	38	4
10	0	0	0	0	500	519	0	517	38	4
11	0	0	0	0	520	519	0	514	39	4
12	0	0	0	0	547	523	0	516	39	4
13	0	0	0	0	492	522	0	518	39	4
14	0	0	0	0	547	523	0	522	39	4
15	0	0	0	0	480	519	0	527	39	4
0	0	0	0	0	493	520	0	529	39	4
1	0	0	0	0	527	522	0	525	39	4
2	0	0	0	0	499	526	0	523	39	4
3	0	0	0	0	440	521	0	524	39	4
4	0	0	0	0	639	519	0	528	39	4
5	0	0	0	0	489	521	0	526	40	4
6	0	0	0	0	731	521	0	528	40	4
7	0	0	0	0	423	524	0	533	40	4
8	0	0	0	0	380	519	0	522	39	4
9	0	0	0	0	614	521	0	538	39	4
10	0	0	0	0	592	522	0	519	38	4
11	0	0	0	0	614	519	0	524	38	4
12	0	0	0	0	537	523	0	518	38	4
13	0	0	0	0	620	521	0	523	37	4
14	0	0	0	0	459	519	0	523	37	4
15	0	0	0	0	592	520	0	516	37	4
0	0	0	0	0	662	520	0	522	37	4
1	0	0	0	0	358	519	0	523	38	4
2	0	0	0	0	639	521	0	521	37	4
3	0	0	0	0	638	522	0	519	37	4
4	0	0	0	0	544	519	0	510	37	4
5	0	0	0	0	742	519	0	514	38	4
6	0	0	0	0	397	516	0	502	39	4
7	0	0	0	0	435	515	0	503	39	4
8	0	0	0	0	539	516	0	504	38	4
9	0	0	0	0	481	515	0	495	37	4
10	0	0	0	0	567	512	0	496	36	4
11	0	0	0	0	593	515	0	497	36	4
12	0	0	0	0	393	514	0	496	36	4
13	0	0	0	0	619	514	0	494	36	4
14	0	0	0	0	460	514	0	502	37	4
15	0	0	0	0	600	511	0	503	38	4
0	0	0	0	0	545	511	0	499	38	4
1	0	0	0	0	436	511	0	501	39	4
2	0	0	0	0	513	515	0	502	39	4
3	0	0	0	0	505	517	0	507	39	4
4	0	0	0	0	528	519	0	513	39	4
5	0	0	0	0	483	518	0	508	38	4
6	0	0	0	0	517	517	0	505	39	4
7	0	0	0	0	487	518	0	509	39	4
8	0	0	0	0	483	515	0	511	38	4
9	0	0	0	0	488	519	0	514	38	4
10	0	0	0	0	504	519	0	511	38	4
11	0	0	0	0	487	517	0	513	37	4
12	0	0	0	0	551	516	0	512	37	4
13	0	0	0	0	566	519	0	518	37	4
14	0	0	0	0	530	518	0	519	37	4
15	0	0	0	0	554	512	0	519	38	4
0	0	0	0	0	506	515	0	513	38	4
1	0	0	0	0	604	512	0	519	38	4
2	0	0	0	0	591	511	0	519	39	4
3	0	0	0	0	475	511	0	513	39	4
4	0	0	0	0	514	510	0	516	39	4
5	0	0	0	0	431	510	0	515	38	4
6	0	0	0	0	555	511	0	511	38	4
7	0	0	0	0	507	510	0	513	37	4
8	0	0	0	0	516	514	0	511	37	4
9	0	0	0	0	510	511	0	512	37	4
10	0	0	0	0	502	509	0	516	38	4
11	0	0	0	0	468	512	0	513	38	4
12	0	0	0	0	499	510	0	508	38	4
13	0	0	0	0	551	509	0	512	38	4
14	0	0	0	0	568	510	0	518	38	4
15	0	0	0	0	562	511	0	522	38	4
0	0	0	0	0	476	513	0	518	38	4
1	0	0	0	0	590	513	0	518	38	4
2	0	0	0	0	493	513	0	516	38	4
3	0	0	0	0	513	513	0	514	38	4
4	0	0	0	0	482	516	0	512	39	4
5	0	0	0	0	446	516	0	507	39	4
6	0	0	0	0	487	519	0	510	39	4
7	0	0	0	0	539	518	0	507	39	4
8	0	0	0	0	496	521	0	504	38	4
9	0	0	0	0	514	524	0	505	38	4
10	0	0	0	0	555	524	0	498	37	4
11	0	0	0	0	469	519	0	500	37	4
12	0	0	0	0	538	525	0	502	37	4
13	0	0	0	0	551	522	0	504	37	4
14	0	0	0	0	491	520	0	504	38	4
15	0	0	0	0	476	521	0	501	38	5
0	0	0	0	0	621	522	0	499	38	5
1	0	0	0	0	432	521	0	508	38	5
2	0	0	0	0	471	518	0	504	38	5
3	0	0	0	0	463	516	0	509	38	5
4	0	0	0	0	514	512	0	506	38	5
5	0	0	0	0	527	512	0	508	37	5
6	0	0	0	0	496	511	0	507	37	5
7	0	0	0	0	446	508	0	510	38	5
8	0	0	0	0	525	509	0	508	38	5
9	0	0	0	0	574	508	0	509	38	5
10	0	0	0	0	486	509	0	506	38	5
11	0	0	0	0	479	510	0	508	39	5
12	0	0	0	0	556	513	0	512	39	5
13	0	0	0	0	466	512	0	517	39	5
14	0	0	0	0	610	515	0	514	39	5
15	0	0	0	0	480	513	0	515	39	5
0	0	0	0	0	539	516	0	511	38	4
1	0	0	0	0	555	519	0	508	37	4
2	0	0	0	0	499	518	0	516	37	4
3	0	0	0	0	513	518	0	517	38	4
4	0	0	0	0	561	517	0	516	38	4
5	0	0	0	0	447	520	0	519	38	4
6	0	0	0	0	497	515	0	514	38	4
7	0	0	0	0	518	516	0	522	39	4
8	0	0	0	0	456	512	0	514	38	4
9	0	0	0	0	509	516	0	522	38	4
10	0	0	0	0	533	515	0	520	37	4
11	0	0	0	0	510	512	0	527	38	4
12	0	0	0	0	570	513	0	516	37	4
13	0	0	0	0	540	511	0	519	37	4
14	0	0	0	0	545	512	0	513	38	4
15	0	0	0	0	524	510	0	519	39	4
0	0	0	0	0	579	511	0	515	38	4
1	0	0	0	0	461	509	0	513	38	4
2	0	0	0	0	458	512	0	516	37	4
3	0	0	0	0	514	512	0	513	37	4
4	0	0	0	0	483	515	0	516	37	4
5	0	0	0	0	479	515	0	515	38	4
6	0	0	0	0	507	514	0	516	38	4
7	0	0	0	0	497	515	0	512	38	4
8	0	0	0	0	499	519	0	516	38	4
9	0	0	0	0	596	521	0	516	38	4
10	0	0	0	0	438	521	0	510	38	4
11	0	0	0	0	537	518	0	515	38	4
12	0	0	0	0	510	520	0	515	38	4
13	0	0	0	0	508	517	0	514	39	4
14	0	0	0	0	462	516	0	515	39	4
15	0	0	0	0	496	513	0	515	39	4
0	0	0	0	0	500	514	0	515	38	4
1	0	0	0	0	555	510	0	511	38	4
2	0	0	0	0	496	511	0	515	37	4
3	0	0	0	0	555	511	0	521	37	4
4	0	0	0	0	513	514	0	519	38	4
5	0	0	0	0	472	514	0	519	38	4
6	0	0	0	0	586	515	0	521	39	4
7	0	0	0	0	512	515	0	522	39	4
8	0	0	0	0	507	514	0	527	39	4
9	0	0	0	0	510	514	0	512	38	4
10	0	0	0	0	490	513	0	522	38	4
11	0	0	0	0	525	516	0	519	38	4
12	0	0	0	0	512	516	0	514	37	4
13	0	0	0	0	540	514	0	510	37	4
14	0	0	0	0	483	513	0	510	37	4
15	0	0	0	0	496	512	0	505	38	4
0	0	0	0	0	515	515	0	506	38	4
1	0	0	0	0	527	517	0	509	38	4
2	0	0	0	0	508	515	0	504	38	4
3	0	0	0	0	502	518	0	505	39	4
4	0	0	0	0	519	519	0	508	38	4
5	0	0	0	0	515	528	0	515	38	4
6	0	0	0	0	512	530	0	502	38	4
7	0	0	0	0	524	534	0	512	38	4
8	0	0	0	0	509	530	0	508	37	4
9	0	0	0	0	522	528	0	510	37	4
10	0	0	0	0	497	530	0	510	37	4
11	0	0	0	0	543	526	0	525	38	4
12	0	0	0	0	477	527	0	513	38	4
13	0	0	0	0	502	527	0	511	39	4
14	0	0	0	0	501	524	0	507	38	4
15	0	0	0	0	532	521	0	511	38	4
0	0	0	0	0	530	521	0	513	37	4
1	0	0	0	0	515	520	0	513	37	4
2	0	0	0	0	555	520	0	512	38	4
3	0	0	0	0	501	520	0	511	38	4
4	0	0	0	0	495	518	0	515	38	4
5	0	0	0	0	520	518	0	515	38	4
6	0	0	0	0	509	514	0	521	38	4
7	0	0	0	0	483	513	0	521	39	4
8	0	0	0	0	504	514	0	519	38	4
9	0	0	0	0	577	509	0	523	38	4
10	0	0	0	0	527	512	0	521	38	4
11	0	0	0	0	495	513	0	520	38	4
12	0	0	0	0	521	511	0	515	37	4
13	0	0	0	0	518	512	0	520	37	4
14	0	0	0	0	510	519	0	518	38	4
15	0	0	0	0	512	521	0	516	38	4
0	0	0	0	0	584	530	0	511	38	4
1	0	0	0	0	509	536	0	515	38	4
2	0	0	0	0	499	538	0	518	38	4
3	0	0	0	0	496	540	0	520	38	4
4	0	0	0	0	523	541	0	519	37	4
5	0	0	0	0	487	537	0	515	37	4
6	0	0	0	0	536	532	0	513	37	4
7	0	0	0	0	478	525	0	512	38	4
8	0	0	0	0	518	521	0	520	38	4
9	0	0	0	0	513	516	0	515	38	4
10	0	0	0	0	529	512	0	519	38	4
11	0	0	0	0	485	508	0	515	38	4
12	0	0	0	0	482	504	0	515	37	4
13	0	0	0	0	503	503	0	519	37	4
14	0	0	0	0	506	503	0	523	36	4
15	0	0	0	0	517	504	0	515	36	4
0	0	0	0	0	521	502	0	513	36	4
1	0	0	0	0	539	502	0	508	36	4
2	0	0	0	0	509	504	0	503	37	4
3	0	0	0	0	521	508	0	519	38	4
4	0	0	0	0	530	509	0	513	38	4
5	0	0	0	0	496	509	0	509	38	4
6	0	0	0	0	526	507	0	509	38	4
7	0	0	0	0	526	506	0	508	38	4
8	0	0	0	0	508	507	0	515	37	4
9	0	0	0	0	563	508	0	514	36	4
10	0	0	0	0	515	504	0	514	36	4
11	0	0	0	0	510	505	0	519	37	4
12	0	0	0	0	521	507	0	504	37	4
13	0	0	0	0	470	506	0	506	37	4
14	0	0	0	0	572	503	0	504	37	4
15	0	0	0	0	509	504	0	509	38	4
0	0	0	0	0	517	500	0	505	38	4
1	0	0	0	0	504	502	0	509	38	4
2	0	0	0	0	514	504	0	510	37	4
3	0	0	0	0	528	504	0	506	37	4
4	0	0	0	0	513	504	0	521	37	4
5	0	0	0	0	521	503	0	509	37	4
6	0	0	0	0	506	508	0	511	37	4
7	0	0	0	0	525	511	0	514	38	4
8	0	0	0	0	524	511	0	510	37	4
9	0	0	0	0	511	513	0	515	38	4
10	0	0	0	0	508	512	0	515	37	4
11	0	0	0	0	515	510	0	514	38	4
12	0	0	0	0	519	511	0	515	37	4
13	0	0	0	0	513	509	0	510	37	4
14	0	0	0	0	521	510	0	514	37	4
15	0	0	0	0	523	510	0	513	37	4
0	0	0	0	0	511	511	0	509	37	4
1	0	0	0	0	525	510	0	506	37	4
2	0	0	0	0	521	509	0	519	38	4
3	0	0	0	0	535	510	0	510	38	4
4	0	0	0	0	517	509	0	508	37	4
5	0	0	0	0	506	511	0	515	37	4
6	0	0	0	0	519	513	0	519	37	4
7	0	0	0	0	518	512	0	526	38	4
8	0	0	0	0	508	516	0	510	37	4
9	0	0	0	0	524	519	0	512	37	4
10	0	0	0	0	505	516	0	509	37	4
11	0	0	0	0	511	519	0	508	37	4
12	0	0	0	0	534	518	0	514	37	4
13	0	0	0	0	498	519	0	517	37	4
14	0	0	0	0	519	515	0	514	37	4
15	0	0	0	0	500	514	0	514	38	4
0	0	0	0	0	539	515	0	516	38	4
1	0	0	0	0	502	512	0	510	38	4
2	0	0	0	0	506	513	0	514	38	4
3	0	0	0	0	520	509	0	509	38	4
4	0	0	0	0	526	513	0	511	37	4
5	0	0	0	0	492	511	0	512	37	4
6	0	0	0	0	527	511	0	508	37	4
7	0	0	0	0	512	509	0	513	38	4
8	0	0	0	0	521	511	0	510	37	4
9	0	0	0	0	508	511	0	513	38	4
10	0	0	0	0	515	512	0	515	38	4
11	0	0	0	0	511	515	0	510	38	4
12	0	0	0	0	514	512	0	514	37	4
13	0	0	0	0	558	512	0	522	37	4
14	0	0	0	0	511	514	0	509	37	4
15	0	0	0	0	499	515	0	507	37	4
0	0	0	0	0	551	518	0	513	37	4
1	0	0	0	0	515	518	0	508	37	4
2	0	0	0	0	531	515	0	509	37	4
3	0	0	0	0	499	516	0	502	38	4
4	0	0	0	0	499	518	0	508	37	4
5	0	0	0	0	531	514	0	512	37	4
6	0	0	0	0	526	518	0	512	37	4
7	0	0	0	0	492	521	0	511	38	4
8	0	0	0	0	486	514	0	505	37	4
9	0	0	0	0	516	520	0	504	37	4
10	0	0	0	0	532	522	0	512	37	4
11	0	0	0	0	504	523	0	511	37	4
12	0	0	0	0	519	519	0	509	37	4
13	0	0	0	0	495	518	0	512	38	4
14	0	0	0	0	540	517	0	509	38	4
15	0	0	0	0	493	517	0	514	38	4
0	0	0	0	0	536	520	0	503	38	4
1	0	0	0	0	499	519	0	514	37	4
2	0	0	0	0	481	515	0	506	37	4
3	0	0	0	0	568	516	0	504	37	4
4	0	0	0	0	480	516	0	505	37	4
5	0	0	0	0	535	521	0	506	37	4
6	0	0	0	0	507	516	0	508	37	4
7	0	0	0	0	527	518	0	508	38	4
8	0	0	0	0	527	518	0	507	38	3
9	0	0	0	0	633	519	0	502	38	3
10	0	0	0	0	513	517	0	504	38	3
11	0	0	0	0	585	518	0	506	38	3
12	0	0	0	0	581	519	0	504	37	3
13	0	0	0	0	628	520	0	511	37	3
14	0	0	0	0	686	521	0	504	37	3
15	0	0	0	0	583	520	0	508	38	3
0	0	0	0	0	641	519	0	511	38	3
1	0	0	0	0	543	521	0	509	38	3
2	0	0	0	0	513	521	0	505	38	3
3	0	0	0	0	616	523	0	512	38	3
4	0	0	0	0	537	523	0	509	38	3
5	0	0	0	0	556	525	0	505	37	3
6	0	0	0	0	466	523	0	515	37	3
7	0	0	0	0	435	524	0	512	38	3
8	0	0	0	0	481	521	0	508	37	3
9	0	0	0	0	480	523	0	512	37	3
10	0	0	0	0	514	520	0	513	37	4
11	0	0	0	0	397	521	0	511	37	4
12	0	0	0	0	477	524	0	509	37	4
13	0	0	0	0	443	519	0	506	37	4
14	0	0	0	0	498	519	0	510	37	4
15	0	0	0	0	397	520	0	507	37	4
0	0	0	0	0	577	516	0	502	37	4
1	0	0	0	0	448	519	0	508	37	4
2	0	0	0	0	451	517	0	511	37	4
3	0	0	0	0	676	515	0	503	37	4
4	0	0	0	0	511	516	0	506	37	4
5	0	0	0	0	579	516	0	501	37	4
6	0	0	0	0	287	515	0	504	37	4
7	0	0	0	0	444	513	0	502	37	4
8	0	0	0	0	575	510	0	501	37	4
9	0	0	0	0	539	511	0	499	37	4
10	0	0	0	0	208	511	0	506	37	4
11	0	0	0	0	638	510	0	501	37	4
12	0	0	0	0	518	512	0	516	37	4
13	0	0	0	0	343	515	0	506	37	4
14	0	0	0	0	600	511	0	504	37	4
15	0	0	0	0	466	514	0	507	37	4
0	0	0	0	0	782	510	0	509	37	4
1	0	0	0	0	432	513	0	506	37	4
2	0	0	0	0	470	512	0	508	37	4
3	0	0	0	0	454	509	0	512	37	4
4	0	0	0	0	456	510	0	508	37	4
5	0	0	0	0	568	508	0	509	37	4
6	0	0	0	0	469	507	0	512	37	4
7	0	0	0	0	477	512	0	510	37	4
8	0	0	0	0	382	509	0	515	36	4
9	0	0	0	0	259	510	0	511	36	4
10	0	0	0	0	353	511	0	510	36	4
11	0	0	0	0	289	516	0	511	36	4
12	0	0	0	0	289	520	0	514	36	4
13	0	0	0	0	519	527	0	514	36	4
14	0	0	0	0	406	535	0	512	37	4
15	0	0	0	0	568	538	0	513	37	4
0	0	0	0	0	900	537	0	505	37	4
1	0	0	0	0	679	528	0	508	37	4
2	0	0	0	0	565	522	0	507	37	4
3	0	0	0	0	584	517	0	504	37	4
4	0	0	0	0	447	510	0	509	37	4
5	0	0	0	0	539	506	0	508	36	4
6	0	0	0	0	440	502	0	509	37	4
7	0	0	0	0	615	500	0	517	37	4
8	0	0	0	0	764	498	0	516	37	4
9	0	0	0	0	425	497	0	508	37	4
10	0	0	0	0	38	497	0	519	37	4
11	0	0	0	0	806	497	0	506	37	4
12	0	0	0	0	263	499	0	504	37	4
13	0	0	0	0	662	498	0	504	37	4
14	0	0	0	0	356	499	0	504	37	4
15	0	0	0	0	376	498	0	506	37	4
0	0	0	0	0	315	497	0	508	37	4
1	0	0	0	0	491	503	0	509	37	4
2	0	0	0	0	587	502	0	504	37	4
3	0	0	0	0	311	501	0	500	37	4
4	0	0	0	0	490	505	0	503	37	4
5	0	0	0	0	734	507	0	504	37	4
6	0	0	0	0	284	506	0	507	37	4
7	0	0	0	0	333	508	0	502	37	4
8	0	0	0	0	633	508	0	502	37	4
9	0	0	0	0	308	508	0	507	37	4
10	0	0	0	0	507	509	0	505	37	4
11	0	0	0	0	569	509	0	502	37	4
12	0	0	0	0	884	514	0	504	37	4
13	0	0	0	0	596	511	0	504	37	4
14	0	0	0	0	479	512	0	499	37	4
15	0	0	0	0	485	513	0	505	38	4
0	0	0	0	0	414	514	0	522	37	4
1	0	0	0	0	451	516	0	504	37	4
2	0	0	0	0	540	517	0	508	37	4
3	0	0	0	0	568	516	0	505	37	4
4	0	0	0	0	415	515	0	508	37	4
5	0	0	0	0	484	518	0	507	37	4
6	0	0	0	0	570	515	0	511	37	4
7	0	0	0	0	374	516	0	512	37	4
8	0	0	0	0	437	514	0	508	37	4
9	0	0	0	0	479	517	0	510	37	4
10	0	0	0	0	591	517	0	513	37	4
11	0	0	0	0	355	516	0	518	37	4
12	0	0	0	0	891	519	0	508	37	4
13	0	0	0	0	513	520	0	517	37	4
14	0	0	0	0	372	519	0	511	37	4
15	0	0	0	0	545	519	0	514	37	4
0	0	0	0	0	444	519	0	514	37	4
1	0	0	0	0	607	521	0	505	37	4
2	0	0	0	0	486	523	0	519	37	4
3	0	0	0	0	527	521	0	519	37	4
4	0	0	0	0	486	521	0	517	37	4
5	0	0	0	0	366	517	0	517	37	4
6	0	0	0	0	464	520	0	519	37	4
7	0	0	0	0	515	516	0	512	37	4
8	0	0	0	0	368	519	0	515	37	4
9	0	0	0	0	639	518	0	515	37	4
10	0	0	0	0	512	524	0	522	37	4
11	0	0	0	0	596	519	0	518	37	4
12	0	0	0	0	386	521	0	519	37	4
13	0	0	0	0	591	517	0	520	37	4
14	0	0	0	0	591	518	0	522	37	4
15	0	0	0	0	602	517	0	523	38	4
0	0	0	0	0	479	517	0	516	37	4
1	0	0	0	0	386	521	0	520	37	4
2	0	0	0	0	432	521	0	519	37	4
3	0	0	0	0	641	518	0	511	38	4
4	0	0	0	0	622	519	0	517	37	4
5	0	0	0	0	648	520	0	518	37	4
6	0	0	0	0	473	518	0	521	37	4
7	0	0	0	0	516	518	0	515	37	4
8	0	0	0	0	460	516	0	518	37	4
9	0	0	0	0	556	514	0	515	37	4
10	0	0	0	0	427	517	0	510	38	4
11	0	0	0	0	523	517	0	514	38	4
12	0	0	0	0	455	517	0	516	37	4
13	0	0	0	0	494	516	0	517	37	4
14	0	0	0	0	512	514	0	516	37	4
15	0	0	0	0	455	516	0	521	37	4
0	0	0	0	0	543	516	0	516	37	4
1	0	0	0	0	537	517	0	513	37	4
2	0	0	0	0	503	516	0	514	37	4
3	0	0	0	0	536	516	0	512	38	4
4	0	0	0	0	514	515	0	519	37	4
5	0	0	0	0	540	513	0	512	37	4
6	0	0	0	0	510	512	0	516	37	4
7	0	0	0	0	487	516	0	512	37	4
8	0	0	0	0	516	515	0	510	37	4
9	0	0	0	0	477	516	0	514	37	4
10	0	0	0	0	522	515	0	515	37	4
11	0	0	0	0	512	518	0	512	38	4
12	0	0	0	0	507	512	0	510	37	4
13	0	0	0	0	497	516	0	513	37	4
14	0	0	0	0	509	515	0	516	37	4
15	0	0	0	0	494	516	0	512	37	4
0	0	0	0	0	521	515	0	510	37	4
1	0	0	0	0	503	514	0	519	37	4
2	0	0	0	0	483	518	0	515	37	4
3	0	0	0	0	535	516	0	514	37	4
4	0	0	0	0	516	517	0	511	37	4
5	0	0	0	0	542	515	0	513	37	4
6	0	0	0	0	533	516	0	515	37	4
7	0	0	0	0	516	516	0	514	37	4
8	0	0	0	0	508	515	0	523	37	4
9	0	0	0	0	516	515	0	511	37	4
10	0	0	0	0	500	517	0	508	37	4
11	0	0	0	0	572	512	0	511	37	4
12	0	0	0	0	479	514	0	515	37	4
13	0	0	0	0	498	516	0	513	37	4
14	0	0	0	0	540	515	0	512	37	4
15	0	0	0	0	512	514	0	505	37	4
0	0	0	0	0	535	518	0	505	37	4
1	0	0	0	0	487	516	0	512	37	4
2	0	0	0	0	512	517	0	508	37	4
3	0	0	0	0	513	515	0	515	37	4
4	0	0	0	0	523	513	0	508	37	4
5	0	0	0	0	455	517	0	516	37	4
6	0	0	0	0	523	519	0	517	37	4
7	0	0	0	0	508	515	0	515	37	4
8	0	0	0	0	499	516	0	516	37	4
9	0	0	0	0	441	518	0	511	38	4
10	0	0	0	0	531	515	0	506	38	4
11	0	0	0	0	533	515	0	508	37	4
12	0	0	0	0	554	518	0	507	37	4
13	0	0	0	0	499	521	0	508	37	4
14	0	0	0	0	440	516	0	503	37	4
15	0	0	0	0	467	514	0	508	37	4
0	0	0	0	0	428	516	0	508	37	4
1	0	0	0	0	449	516	0	504	37	4
2	0	0	0	0	465	514	0	500	37	4
3	0	0	0	0	501	515	0	512	37	4
4	0	0	0	0	515	516	0	510	37	4
5	0	0	0	0	509	514	0	512	37	4
6	0	0	0	0	492	515	0	513	37	4
7	0	0	0	0	528	515	0	517	38	4
8	0	0	0	0	505	519	0	508	37	4
9	0	0	0	0	476	517	0	506	37	4
10	0	0	0	0	464	512	0	504	37	4
11	0	0	0	0	473	514	0	502	37	4
12	0	0	0	0	531	514	0	510	37	4
13	0	0	0	0	509	514	0	508	37	4
14	0	0	0	0	542	517	0	512	37	4
15	0	0	0	0	494	515	0	507	38	4
0	0	0	0	0	513	515	0	507	38	4
1	0	0	0	0	554	512	0	506	37	4
2	0	0	0	0	559	513	0	512	37	4
3	0	0	0	0	561	513	0	521	37	3
4	0	0	0	0	573	515	0	518	37	3
5	0	0	0	0	568	512	0	513	37	3
6	0	0	0	0	547	516	0	516	37	3
7	0	0	0	0	499	515	0	513	38	3
8	0	0	0	0	498	514	0	519	37	3
9	0	0	0	0	512	515	0	512	37	3
10	0	0	0	0	561	515	0	514	37	3
11	0	0	0	0	560	514	0	515	37	3
12	0	0	0	0	553	513	0	513	37	3
13	0	0	0	0	558	516	0	514	37	3
14	0	0	0	0	540	514	0	514	37	3
15	0	0	0	0	537	514	0	517	37	3
0	0	0	0	0	514	512	0	518	37	3
1	0	0	0	0	525	515	0	512	37	3
2	0	0	0	0	512	516	0	512	37	3
3	0	0	0	0	523	516	0	514	37	3
4	0	0	0	0	521	515	0	511	37	3
5	0	0	0	0	521	515	0	512	37	3
6	0	0	0	0	551	515	0	511	37	3
7	0	0	0	0	463	518	0	510	37	3
8	0	0	0	0	540	513	0	511	37	3
9	0	0	0	0	507	515	0	507	37	3
10	0	0	0	0	530	516	0	510	37	4
11	0	0	0	0	516	514	0	507	37	4
12	0	0	0	0	509	516	0	511	37	4
13	0	0	0	0	511	512	0	511	37	4
14	0	0	0	0	519	515	0	510	37	4
15	0	0	0	0	527	516	0	511	37	4
0	0	0	0	0	513	516	0	511	37	4
1	0	0	0	0	503	513	0	509	37	4
2	0	0	0	0	519	515	0	511	37	4
3	0	0	0	0	507	515	0	508	37	4
4	0	0	0	0	503	515	0	512	37	4
5	0	0	0	0	523	515	0	509	37	4
6	0	0	0	0	508	517	0	505	37	4
7	0	0	0	0	514	514	0	511	37	4
8	0	0	0	0	520	513	0	521	37	4
9	0	0	0	0	504	516	0	507	37	4
10	0	0	0	0	515	516	0	510	37	4
11	0	0	0	0	510	517	0	520	37	4
12	0	0	0	0	525	517	0	508	37	4
13	0	0	0	0	515	516	0	514	37	4
14	0	0	0	0	519	513	0	514	37	4
15	0	0	0	0	529	516	0	508	37	4
0	0	0	0	0	503	513	0	511	36	4
1	0	0	0	0	506	515	0	513	37	4
2	0	0	0	0	530	514	0	515	37	4
3	0	0	0	0	492	516	0	515	37	4
4	0	0	0	0	516	514	0	512	37	4
5	0	0	0	0	502	513	0	510	38	4
6	0	0	0	0	505	515	0	520	38	4
7	0	0	0	0	511	513	0	517	38	4
8	0	0	0	0	486	517	0	511	37	4
9	0	0	0	0	513	515	0	518	37	4
10	0	0	0	0	495	514	0	518	37	4
11	0	0	0	0	514	517	0	514	37	4
12	0	0	0	0	515	517	0	513	37	4
13	0	0	0	0	524	514	0	521	37	4
14	0	0	0	0	508	516	0	509	37	4
15	0	0	0	0	526	515	0	507	37	4
0	0	0	0	0	515	515	0	508	37	4
1	0	0	0	0	508	517	0	514	38	4
2	0	0	0	0	529	517	0	505	38	4
3	0	0	0	0	526	513	0	510	38	4
4	0	0	0	0	513	515	0	512	37	4
5	0	0	0	0	518	519	0	506	36	4
6	0	0	0	0	513	516	0	510	36	4
7	0	0	0	0	503	517	0	509	36	4
8	0	0	0	0	499	517	0	513	36	4
9	0	0	0	0	494	513	0	509	37	4
10	0	0	0	0	528	516	0	512	37	4
11	0	0	0	0	532	515	0	509	38	4
12	0	0	0	0	521	518	0	509	37	4
13	0	0	0	0	504	514	0	509	37	4
14	0	0	0	0	527	517	0	506	37	4
15	0	0	0	0	524	514	0	508	37	4
0	0	0	0	0	499	516	0	500	36	4
1	0	0	0	0	524	515	0	505	36	4
2	0	0	0	0	511	515	0	507	37	4
3	0	0	0	0	505	517	0	506	37	4
4	0	0	0	0	519	515	0	510	37	4
5	0	0	0	0	516	516	0	504	37	4
6	0	0	0	0	513	513	0	505	37	4
7	0	0	0	0	522	515	0	506	38	4
8	0	0	0	0	536	515	0	509	37	4
9	0	0	0	0	484	511	0	510	36	4
10	0	0	0	0	544	518	0	504	36	4
11	0	0	0	0	511	515	0	502	35	4
12	0	0	0	0	513	516	0	499	35	4
13	0	0	0	0	513	518	0	499	37	4
14	0	0	0	0	530	516	0	503	38	4
15	0	0	0	0	539	517	0	501	39	4
0	0	0	0	0	506	515	0	504	39	4
1	0	0	0	0	507	519	0	499	39	4
2	0	0	0	0	516	518	0	498	39	4
3	0	0	0	0	507	518	0	505	39	4
4	0	0	0	0	523	517	0	504	37	4
5	0	0	0	0	519	513	0	504	37	4
6	0	0	0	0	532	516	0	505	37	4
7	0	0	0	0	471	515	0	509	37	4
8	0	0	0	0	539	516	0	507	37	4
9	0	0	0	0	529	513	0	511	37	4
10	0	0	0	0	513	515	0	513	38	4
11	0	0	0	0	518	513	0	510	39	5
12	0	0	0	0	505	516	0	508	39	5
13	0	0	0	0	519	514	0	511	39	5
14	0	0	0	0	533	517	0	515	38	5
15	0	0	0	0	512	516	0	507	38	5
0	0	0	0	0	500	519	0	513	37	5
1	0	0	0	0	483	518	0	512	37	5
2	0	0	0	0	513	519	0	512	37	5
3	0	0	0	0	517	518	0	516	38	5
4	0	0	0	0	560	519	0	517	38	5
5	0	0	0	0	506	516	0	513	39	5
6	0	0	0	0	495	517	0	514	38	5
7	0	0	0	0	491	517	0	530	38	5
8	0	0	0	0	503	515	0	512	38	5
9	0	0	0	0	502	516	0	509	38	5
10	0	0	0	0	520	514	0	513	38	5
11	0	0	0	0	607	518	0	514	38	5
12	0	0	0	0	485	520	0	508	37	5
13	0	0	0	0	516	519	0	512	37	5
14	0	0	0	0	455	521	0	516	37	5
15	0	0	0	0	547	521	0	507	38	5
0	0	0	0	0	524	519	0	515	38	5
1	0	0	0	0	528	520	0	513	38	5
2	0	0	0	0	496	518	0	512	38	5
3	0	0	0	0	561	517	0	510	38	5
4	0	0	0	0	414	516	0	514	38	5
5	0	0	0	0	519	515	0	523	38	5
6	0	0	0	0	479	514	0	519	38	5
7	0	0	0	0	527	515	0	513	38	5
8	0	0	0	0	396	515	0	511	37	5
9	0	0	0	0	657	515	0	519	37	5
10	0	0	0	0	632	517	0	515	37	5
11	0	0	0	0	359	513	0	518	38	4
12	0	0	0	0	502	515	0	519	37	4
13	0	0	0	0	487	514	0	514	37	4
14	0	0	0	0	800	512	0	518	38	4
15	0	0	0	0	1022	512	0	515	38	4
0	0	0	0	0	0	514	0	550	38	4
1	0	0	0	0	263	511	0	515	38	4
2	0	0	0	0	457	514	0	513	37	5
3	0	0	0	0	505	513	0	509	37	5
4	0	0	0	0	513	513	0	510	37	5
5	0	0	0	0	515	512	0	512	37	5
6	0	0	0	0	510	513	0	513	37	5
7	0	0	0	0	513	513	0	515	38	5
8	0	0	0	0	513	513	0	515	38	5
9	0	0	0	0	518	514	0	510	37	5
10	0	0	0	0	518	514	0	511	37	5
11	0	0	0	0	517	513	0	508	37	5
12	0	0	0	0	514	513	0	511	37	5
13	0	0	0	0	507	511	0	513	37	5
14	0	0	0	0	519	511	0	505	37	5
15	0	0	0	0	520	510	0	511	37	5
0	0	0	0	0	516	509	0	510	37	5
1	0	0	0	0	496	507	0	501	37	5
2	0	0	0	0	383	510	0	509	37	5
3	0	0	0	0	769	509	0	503	37	5
4	0	0	0	0	7	509	0	510	37	5
5	0	0	0	0	617	510	0	511	37	5
6	0	0	0	0	185	508	0	511	36	5
7	0	0	0	0	195	513	0	509	36	5
8	0	0	0	0	935	509	0	512	36	5
9	0	0	0	0	524	512	0	509	36	5
10	0	0	0	0	179	511	0	504	37	5
11	0	0	0	0	647	513	0	508	37	5
12	0	0	0	0	122	518	0	511	37	5
13	0	0	0	0	345	515	0	508	38	5
14	0	0	0	0	251	514	0	507	38	5
15	0	0	0	0	742	514	0	508	39	5
0	0	0	0	0	1017	516	0	508	38	5
1	0	0	0	0	426	512	0	510	38	5
2	0	0	0	0	715	514	0	510	37	5
3	0	0	0	0	659	514	0	511	37	5
4	0	0	0	0	743	516	0	508	37	5
5	0	0	0	0	263	517	0	508	37	5
6	0	0	0	0	723	515	0	512	37	5
7	0	0	0	0	585	515	0	513	37	5
8	0	0	0	0	309	514	0	512	38	5
9	0	0	0	0	344	518	0	512	38	5
10	0	0	0	0	583	517	0	507	38	5
11	0	0	0	0	517	515	0	511	38	5
12	0	0	0	0	472	518	0	512	38	5
13	0	0	0	0	558	518	0	513	37	5
14	0	0	0	0	685	515	0	511	37	5
15	0	0	0	0	1022	515	0	507	38	5
0	0	0	0	0	158	518	0	513	37	5
1	0	0	0	0	781	516	0	513	37	5
2	0	0	0	0	289	513	0	511	37	5
3	0	0	0	0	400	516	0	511	37	5
4	0	0	0	0	912	517	0	509	37	5
5	0	0	0	0	973	518	0	510	37	5
6	0	0	0	0	545	514	0	510	36	5
7	0	0	0	0	217	516	0	512	37	5
8	0	0	0	0	829	515	0	509	37	5
9	0	0	0	0	304	515	0	512	37	5
10	0	0	0	0	540	514	0	513	37	5
11	0	0	0	0	709	514	0	511	37	5
12	0	0	0	0	488	514	0	509	37	5
13	0	0	0	0	721	516	0	505	37	5
14	0	0	0	0	656	513	0	512	37	5
15	0	0	0	0	552	516	0	508	38	5
0	0	0	0	0	254	516	0	509	38	5
1	0	0	0	0	707	517	0	509	38	5
2	0	0	0	0	411	516	0	509	38	5
3	0	0	0	0	438	516	0	504	38	5
4	0	0	0	0	276	517	0	512	37	5
5	0	0	0	0	602	511	0	508	37	5
6	0	0	0	0	352	518	0	512	38	5
7	0	0	0	0	529	517	0	508	38	5
8	0	0	0	0	488	519	0	509	38	5
9	0	0	0	0	433	519	0	512	38	5
10	0	0	0	0	697	518	0	516	38	5
11	0	0	0	0	363	521	0	515	38	5
12	0	0	0	0	399	525	0	516	38	5
13	0	0	0	0	481	520	0	510	38	5
14	0	0	0	0	625	521	0	519	37	5
15	0	0	0	0	289	523	0	513	37	5
0	0	0	0	0	447	524	0	515	36	5
1	0	0	0	0	458	521	0	515	37	5
2	0	0	0	0	538	518	0	507	37	5
3	0	0	0	0	397	519	0	515	37	5
4	0	0	0	0	495	517	0	513	37	5
5	0	0	0	0	515	513	0	512	37	5
6	0	0	0	0	355	515	0	515	37	5
7	0	0	0	0	556	515	0	514	37	5
8	0	0	0	0	622	516	0	509	37	5
9	0	0	0	0	592	516	0	509	37	5
10	0	0	0	0	426	516	0	515	37	5
11	0	0	0	0	553	519	0	512	38	5
12	0	0	0	0	512	521	0	509	38	5
13	0	0	0	0	517	522	0	504	38	5
14	0	0	0	0	511	527	0	512	38	5
15	0	0	0	0	790	532	0	518	38	5
0	0	0	0	0	491	536	0	513	38	5
1	0	0	0	0	492	538	0	513	38	5
2	0	0	0	0	417	539	0	511	38	5
3	0	0	0	0	359	540	0	509	38	5
4	0	0	0	0	543	541	0	509	38	5
5	0	0	0	0	219	536	0	510	38	5
6	0	0	0	0	546	533	0	512	38	5
7	0	0	0	0	507	535	0	514	38	5
8	0	0	0	0	434	531	0	514	37	5
9	0	0	0	0	743	529	0	512	37	5
10	0	0	0	0	319	530	0	516	37	5
11	0	0	0	0	561	524	0	519	38	5
12	0	0	0	0	527	527	0	511	38	5
13	0	0	0	0	366	524	0	511	37	5
14	0	0	0	0	551	524	0	513	37	5
15	0	0	0	0	680	522	0	509	38	5
0	0	0	0	0	771	521	0	509	38	5
1	0	0	0	0	327	523	0	509	38	5
2	0	0	0	0	654	521	0	514	38	5
3	0	0	0	0	522	520	0	516	38	5
4	0	0	0	0	263	519	0	515	37	5
5	0	0	0	0	661	516	0	516	37	5
6	0	0	0	0	0	516	0	521	37	5
7	0	0	0	0	0	517	0	515	37	5
8	0	0	0	0	186	512	0	513	37	5
9	0	0	0	0	604	514	0	516	37	5
10	0	0	0	0	785	513	0	515	38	5
11	0	0	0	0	731	513	0	513	38	5
12	0	0	0	0	812	515	0	514	38	5
13	0	0	0	0	766	525	0	515	38	5
14	0	0	0	0	612	543	0	512	38	5
15	0	0	0	0	457	561	0	519	38	5
0	0	0	0	0	516	573	0	517	38	5
1	0	0	0	0	563	573	0	515	38	5
2	0	0	0	0	569	578	0	517	37	5
3	0	0	0	0	564	569	0	512	37	5
4	0	0	0	0	567	556	0	513	37	5
5	0	0	0	0	556	552	0	516	36	5
6	0	0	0	0	553	549	0	519	37	5
7	0	0	0	0	566	548	0	517	37	5
8	0	0	0	0	555	546	0	514	38	5
9	0	0	0	0	521	540	0	515	38	5
10	0	0	0	0	530	530	0	518	38	5
11	0	0	0	0	548	525	0	512	38	5
12	0	0	0	0	546	524	0	515	37	5
13	0	0	0	0	520	526	0	512	36	5
14	0	0	0	0	524	531	0	513	36	5
15	0	0	0	0	556	537	0	508	37	5
0	0	0	0	0	504	543	0	515	36	5
1	0	0	0	0	561	540	0	516	37	5
2	0	0	0	0	505	535	0	512	37	5
3	0	0	0	0	516	528	0	516	38	5
4	0	0	0	0	512	524	0	513	38	5
5	0	0	0	0	520	521	0	515	38	5
6	0	0	0	0	545	519	0	511	38	5
7	0	0	0	0	531	515	0	513	38	5
8	0	0	0	0	506	511	0	515	37	5
9	0	0	0	0	530	504	0	508	37	5
10	0	0	0	0	557	502	0	513	36	5
11	0	0	0	0	521	498	0	518	36	4
12	0	0	0	0	508	496	0	511	36	4
13	0	0	0	0	520	494	0	508	36	4
14	0	0	0	0	504	490	0	507	36	4
15	0	0	0	0	513	488	0	508	37	4
0	0	0	0	0	524	484	0	509	37	5
1	0	0	0	0	524	480	0	509	38	5
2	0	0	0	0	525	476	0	511	38	5
3	0	0	0	0	532	474	0	508	38	5
4	0	0	0	0	510	467	0	509	38	5
5	0	0	0	0	529	456	0	508	37	5
6	0	0	0	0	516	447	0	508	36	5
7	0	0	0	0	471	436	0	511	36	5
8	0	0	0	0	489	430	0	510	35	5
9	0	0	0	0	527	429	0	505	36	5
10	0	0	0	0	512	431	0	509	36	5
11	0	0	0	0	513	433	0	508	37	5
12	0	0	0	0	511	439	0	504	38	5
13	0	0	0	0	512	442	0	509	39	5
14	0	0	0	0	516	449	0	508	39	5
15	0	0	0	0	518	450	0	508	39	5
0	0	0	0	0	511	455	0	503	38	5
1	0	0	0	0	527	462	0	507	37	5
2	0	0	0	0	511	471	0	505	36	5
3	0	0	0	0	516	484	0	505	36	5
4	0	0	0	0	507	493	0	506	36	5
5	0	0	0	0	515	491	0	504	36	5
6	0	0	0	0	527	488	0	508	37	5
7	0	0	0	0	515	484	0	504	37	5
8	0	0	0	0	522	491	0	509	37	5
9	0	0	0	0	505	501	0	511	38	5
10	0	0	0	0	498	509	0	504	38	5
11	0	0	0	0	524	515	0	507	38	5
12	0	0	0	0	532	511	0	508	37	5
13	0	0	0	0	487	511	0	509	37	5
14	0	0	0	0	506	508	0	508	37	5
15	0	0	0	0	502	508	0	515	37	5
0	0	0	0	0	506	512	0	508	36	5
1	0	0	0	0	518	518	0	508	36	5
2	0	0	0	0	513	519	0	512	37	5
3	0	0	0	0	516	522	0	516	38	5
4	0	0	0	0	538	530	0	508	37	5
5	0	0	0	0	505	532	0	505	37	5
6	0	0	0	0	528	535	0	507	37	5
7	0	0	0	0	514	539	0	509	38	5
8	0	0	0	0	528	540	0	510	38	5
9	0	0	0	0	530	541	0	511	38	5
10	0	0	0	0	509	541	0	513	38	5
11	0	0	0	0	557	546	0	508	37	5
12	0	0	0	0	503	549	0	509	37	5
13	0	0	0	0	519	550	0	513	37	5
14	0	0	0	0	505	552	0	514	36	5
15	0	0	0	0	519	548	0	511	36	5
0	0	0	0	0	518	551	0	512	37	5
1	0	0	0	0	526	546	0	513	37	5
2	0	0	0	0	496	546	0	517	38	5
3	0	0	0	0	510	541	0	514	38	5
4	0	0	0	0	509	539	0	511	37	5
5	0	0	0	0	529	539	0	513	37	5
6	0	0	0	0	501	539	0	515	37	5
7	0	0	0	0	533	535	0	512	37	5
8	0	0	0	0	509	535	0	511	36	5
9	0	0	0	0	515	528	0	513	36	5
10	0	0	0	0	512	530	0	511	37	5
11	0	0	0	0	528	529	0	512	38	5
12	0	0	0	0	518	528	0	515	38	5
13	0	0	0	0	564	526	0	516	38	5
14	0	0	0	0	528	519	0	508	38	5
15	0	0	0	0	543	519	0	515	38	5
0	0	0	0	0	513	515	0	514	37	5
1	0	0	0	0	532	513	0	519	37	5
2	0	0	0	0	517	506	0	515	37	5
3	0	0	0	0	520	506	0	512	37	5
4	0	0	0	0	457	504	0	513	36	5
5	0	0	0	0	491	505	0	519	36	5
6	0	0	0	0	530	503	0	515	37	5
7	0	0	0	0	491	500	0	513	37	5
8	0	0	0	0	478	504	0	513	37	5
9	0	0	0	0	548	505	0	519	37	5
10	0	0	0	0	475	508	0	514	37	5
11	0	0	0	0	461	512	0	517	37	5
12	0	0	0	0	576	515	0	518	37	5
13	0	0	0	0	449	523	0	514	37	5
14	0	0	0	0	513	521	0	514	36	5
15	0	0	0	0	459	529	0	515	37	5
0	0	0	0	0	572	534	0	514	37	5
1	0	0	0	0	531	535	0	512	37	5
2	0	0	0	0	487	543	0	518	37	5
3	0	0	0	0	480	543	0	518	38	5
4	0	0	0	0	580	545	0	515	38	5
5	0	0	0	0	397	543	0	514	37	5
6	0	0	0	0	508	549	0	513	38	5
7	0	0	0	0	532	545	0	513	37	5
8	0	0	0	0	486	542	0	513	37	5
9	0	0	0	0	670	543	0	518	37	5
10	0	0	0	0	419	541	0	516	37	5
11	0	0	0	0	473	536	0	517	37	5
12	0	0	0	0	421	539	0	512	37	5
13	0	0	0	0	472	535	0	516	38	5
14	0	0	0	0	710	534	0	513	38	5
15	0	0	0	0	319	534	0	514	38	5
0	0	0	0	0	342	528	0	510	37	4
1	0	0	0	0	1022	527	0	512	37	4
2	0	0	0	0	572	523	0	513	37	4
3	0	0	0	0	0	521	0	518	37	4
4	0	0	0	0	165	518	0	528	37	4
5	0	0	0	0	258	513	0	511	37	4
6	0	0	0	0	674	511	0	511	37	4
7	0	0	0	0	465	512	0	516	37	4
8	0	0	0	0	617	504	0	515	37	4
9	0	0	0	0	794	505	0	515	37	4
10	0	0	0	0	513	507	0	511	36	4
11	0	0	0	0	275	505	0	513	37	4
12	0	0	0	0	382	504	0	513	38	4
13	0	0	0	0	480	506	0	518	37	4
14	0	0	0	0	756	505	0	515	37	4
15	0	0	0	0	713	506	0	513	37	4
0	0	0	0	0	540	504	0	519	37	4
1	0	0	0	0	473	508	0	515	37	4
2	0	0	0	0	183	505	0	514	36	4
3	0	0	0	0	674	505	0	512	37	4
4	0	0	0	0	542	504	0	512	37	4
5	0	0	0	0	166	504	0	513	37	4
6	0	0	0	0	833	502	0	514	37	4
7	0	0	0	0	216	500	0	511	37	4
8	0	0	0	0	245	502	0	506	36	4
9	0	0	0	0	266	499	0	506	36	4
10	0	0	0	0	579	497	0	515	37	4
11	0	0	0	0	516	500	0	508	37	4
12	0	0	0	0	872	496	0	511	36	4
13	0	0	0	0	455	494	0	513	36	4
14	0	0	0	0	522	497	0	512	35	4
15	0	0	0	0	548	501	0	514	36	4
0	0	0	0	0	625	502	0	514	36	4
1	0	0	0	0	545	503	0	513	36	4
2	0	0	0	0	763	504	0	511	36	4
3	0	0	0	0	574	505	0	510	36	4
4	0	0	0	0	326	504	0	510	36	4
5	0	0	0	0	1022	485	0	507	36	5
6	0	0	0	0	71	462	0	511	37	5
7	0	0	0	0	547	451	0	511	37	5
8	0	0	0	0	685	444	0	513	37	5
9	0	0	0	0	1022	449	0	512	37	5
10	0	0	0	0	523	458	0	513	37	5
11	0	0	0	0	376	470	0	513	37	5
12	0	0	0	0	548	478	0	513	36	5
13	0	0	0	0	537	483	0	513	37	5
14	0	0	0	0	0	489	0	515	36	5
15	0	0	0	0	1012	495	0	511	37	5
0	0	0	0	0	446	496	0	512	37	5
1	0	0	0	0	663	481	0	516	37	5
2	0	0	0	0	911	471	0	508	36	5
3	0	0	0	0	342	461	0	516	37	5
4	0	0	0	0	496	458	0	515	36	5
5	0	0	0	0	455	450	0	515	36	5
6	0	0	0	0	756	447	0	517	36	5
7	0	0	0	0	605	453	0	510	37	5
8	0	0	0	0	583	455	0	515	37	5
9	0	0	0	0	371	456	0	519	37	4
10	0	0	0	0	281	461	0	516	37	4
11	0	0	0	0	483	469	0	515	37	4
12	0	0	0	0	159	476	0	508	37	4
13	0	0	0	0	516	487	0	507	37	4
14	0	0	0	0	366	494	0	513	36	4
15	0	0	0	0	363	505	0	515	36	4
0	0	0	0	0	830	511	0	512	36	4
1	0	0	0	0	610	519	0	509	36	4
2	0	0	0	0	477	524	0	508	36	4
3	0	0	0	0	535	526	0	512	36	4
4	0	0	0	0	452	528	0	514	35	4
5	0	0	0	0	721	529	0	510	36	4
6	0	0	0	0	943	529	0	508	36	4
7	0	0	0	0	193	528	0	510	37	4
8	0	0	0	0	619	529	0	506	39	4
9	0	0	0	0	285	523	0	513	39	4
10	0	0	0	0	505	527	0	515	38	4
11	0	0	0	0	764	525	0	515	37	4
12	0	0	0	0	657	526	0	513	35	4
13	0	0	0	0	347	528	0	511	35	4
14	0	0	0	0	592	526	0	510	35	4
15	0	0	0	0	702	529	0	511	36	4
0	0	0	0	0	321	528	0	512	36	4
1	0	0	0	0	721	528	0	510	37	4
2	0	0	0	0	362	527	0	510	37	4
3	0	0	0	0	578	529	0	507	37	4
4	0	0	0	0	541	530	0	507	37	4
5	0	0	0	0	797	529	0	507	37	4
6	0	0	0	0	196	528	0	512	36	4
7	0	0	0	0	613	531	0	515	36	4
8	0	0	0	0	526	531	0	512	35	4
9	0	0	0	0	512	531	0	511	34	4
10	0	0	0	0	457	532	0	510	35	4
11	0	0	0	0	478	533	0	513	35	4
12	0	0	0	0	444	532	0	509	36	4
13	0	0	0	0	467	535	0	513	36	4
14	0	0	0	0	472	531	0	511	37	4
15	0	0	0	0	625	532	0	509	37	4
0	0	0	0	0	545	534	0	511	37	4
1	0	0	0	0	512	531	0	508	36	4
2	0	0	0	0	487	531	0	513	35	4
3	0	0	0	0	575	530	0	510	36	4
4	0	0	0	0	588	531	0	512	35	4
5	0	0	0	0	435	530	0	516	36	4
6	0	0	0	0	524	527	0	511	36	4
7	0	0	0	0	456	526	0	512	36	5
8	0	0	0	0	476	526	0	508	36	5
9	0	0	0	0	468	526	0	515	36	5
10	0	0	0	0	613	522	0	512	36	5
11	0	0	0	0	497	523	0	511	37	5
12	0	0	0	0	531	525	0	515	36	5
13	0	0	0	0	499	525	0	505	35	5
14	0	0	0	0	614	523	0	511	36	5
15	0	0	0	0	475	527	0	516	37	5
0	0	0	0	0	467	524	0	516	37	5
1	0	0	0	0	491	523	0	514	37	5
2	0	0	0	0	464	526	0	513	37	5
3	0	0	0	0	508	525	0	510	37	5
4	0	0	0	0	522	525	0	516	37	5
5	0	0	0	0	504	526	0	514	37	5
6	0	0	0	0	557	524	0	515	36	5
7	0	0	0	0	491	527	0	510	37	5
8	0	0	0	0	519	526	0	513	37	5
9	0	0	0	0	511	525	0	516	37	5
10	0	0	0	0	487	522	0	516	37	5
11	0	0	0	0	575	524	0	508	37	5
12	0	0	0	0	527	524	0	513	36	5
13	0	0	0	0	505	524	0	515	37	5
14	0	0	0	0	550	525	0	516	36	5
15	0	0	0	0	512	521	0	510	37	5
0	0	0	0	0	537	521	0	516	36	5
1	0	0	0	0	494	521	0	507	36	5
2	0	0	0	0	493	521	0	511	36	5
3	0	0	0	0	543	520	0	512	36	4
4	0	0	0	0	506	516	0	512	36	4
5	0	0	0	0	520	519	0	516	36	4
6	0	0	0	0	497	523	0	516	36	4
7	0	0	0	0	490	521	0	510	36	4
8	0	0	0	0	536	521	0	512	36	4
9	0	0	0	0	509	519	0	514	35	4
10	0	0	0	0	519	516	0	514	36	4
11	0	0	0	0	517	518	0	515	37	4
12	0	0	0	0	532	517	0	511	36	4
13	0	0	0	0	521	516	0	514	36	4
14	0	0	0	0	505	516	0	513	36	4
15	0	0	0	0	496	514	0	510	37	4
0	0	0	0	0	548	516	0	509	37	4
1	0	0	0	0	507	519	0	521	36	4
2	0	0	0	0	507	518	0	513	36	4
3	0	0	0	0	516	518	0	516	36	4
4	0	0	0	0	507	518	0	516	36	4
5	0	0	0	0	511	517	0	512	36	4
6	0	0	0	0	509	517	0	510	36	4
7	0	0	0	0	512	518	0	517	36	4
8	0	0	0	0	530	518	0	516	36	4
9	0	0	0	0	516	519	0	511	36	4
10	0	0	0	0	516	516	0	512	36	4
11	0	0	0	0	509	516	0	514	36	5
12	0	0	0	0	529	518	0	512	36	5
13	0	0	0	0	525	515	0	510	36	5
14	0	0	0	0	546	516	0	516	36	5
15	0	0	0	0	497	518	0	510	36	5
0	0	0	0	0	510	518	0	509	36	5
1	0	0	0	0	503	518	0	514	36	5
2	0	0	0	0	503	518	0	510	36	5
3	0	0	0	0	513	519	0	515	36	5
4	0	0	0	0	519	519	0	516	36	5
5	0	0	0	0	515	519	0	515	36	5
6	0	0	0	0	517	516	0	511	36	5
7	0	0	0	0	508	516	0	519	36	5
8	0	0	0	0	530	516	0	515	36	5
9	0	0	0	0	514	519	0	517	36	5
10	0	0	0	0	535	518	0	522	36	5
11	0	0	0	0	496	516	0	515	36	5
12	0	0	0	0	531	514	0	521	36	5
13	0	0	0	0	512	517	0	512	36	5
14	0	0	0	0	544	517	0	513	36	5
15	0	0	0	0	513	513	0	517	37	5
0	0	0	0	0	522	514	0	518	37	5
1	0	0	0	0	523	516	0	516	37	5
2	0	0	0	0	518	518	0	519	36	5
3	0	0	0	0	538	519	0	515	36	5
4	0	0	0	0	508	516	0	511	35	5
5	0	0	0	0	518	519	0	510	35	5
6	0	0	0	0	535	520	0	508	35	5
7	0	0	0	0	515	520	0	515	36	5
8	0	0	0	0	541	519	0	515	36	5
9	0	0	0	0	512	518	0	514	36	5
10	0	0	0	0	506	519	0	514	36	5
11	0	0	0	0	513	521	0	514	36	5
12	0	0	0	0	475	517	0	512	36	5
13	0	0	0	0	530	519	0	516	36	5
14	0	0	0	0	502	520	0	513	36	5
15	0	0	0	0	510	518	0	518	36	5
0	0	0	0	0	515	516	0	506	36	5
1	0	0	0	0	508	517	0	516	36	5
2	0	0	0	0	512	515	0	513	36	5
3	0	0	0	0	509	517	0	517	36	5
4	0	0	0	0	529	518	0	512	36	5
5	0	0	0	0	526	516	0	519	36	5
6	0	0	0	0	531	517	0	516	36	5
7	0	0	0	0	509	514	0	519	36	5
8	0	0	0	0	506	516	0	514	36	5
9	0	0	0	0	497	515	0	514	36	5
10	0	0	0	0	495	515	0	510	36	5
11	0	0	0	0	511	517	0	515	36	5
12	0	0	0	0	513	516	0	511	36	5
13	0	0	0	0	514	516	0	517	36	5
14	0	0	0	0	538	517	0	508	36	5
15	0	0	0	0	504	519	0	508	36	5
0	0	0	0	0	521	512	0	518	36	5
1	0	0	0	0	527	516	0	508	37	5
2	0	0	0	0	503	518	0	511	37	5
3	0	0	0	0	527	513	0	511	37	5
4	0	0	0	0	518	516	0	512	37	5
5	0	0	0	0	510	517	0	517	37	5
6	0	0	0	0	505	518	0	511	37	5
7	0	0	0	0	541	513	0	514	37	5
8	0	0	0	0	481	515	0	503	36	5
9	0	0	0	0	569	516	0	512	35	5
10	0	0	0	0	502	515	0	511	35	5
11	0	0	0	0	507	516	0	512	36	5
12	0	0	0	0	516	515	0	502	36	5
13	0	0	0	0	521	515	0	505	36	5
14	0	0	0	0	506	516	0	506	36	5
15	0	0	0	0	517	514	0	505	36	5
0	0	0	0	0	532	514	0	509	36	5
1	0	0	0	0	508	518	0	508	36	5
2	0	0	0	0	538	517	0	506	36	5
3	0	0	0	0	521	514	0	503	37	5
4	0	0	0	0	482	516	0	506	37	5
5	0	0	0	0	497	516	0	509	36	5
6	0	0	0	0	524	511	0	508	36	5
7	0	0	0	0	519	515	0	506	35	5
8	0	0	0	0	527	515	0	508	35	5
9	0	0	0	0	517	517	0	505	36	5
10	0	0	0	0	501	514	0	513	36	5
11	0	0	0	0	500	513	0	528	36	5
12	0	0	0	0	584	510	0	503	36	5
13	0	0	0	0	528	518	0	511	36	5
14	0	0	0	0	511	517	0	512	36	5
15	0	0	0	0	516	516	0	504	37	5
0	0	0	0	0	529	517	0	511	37	5
1	0	0	0	0	522	514	0	506	37	5
2	0	0	0	0	706	515	0	508	37	5
3	0	0	0	0	601	514	0	509	37	5
4	0	0	0	0	483	515	0	510	36	5
5	0	0	0	0	490	514	0	519	36	5
6	0	0	0	0	553	517	0	514	36	5
7	0	0	0	0	477	518	0	518	36	5
8	0	0	0	0	476	515	0	509	36	5
9	0	0	0	0	504	514	0	512	36	5
10	0	0	0	0	468	516	0	512	36	5
11	0	0	0	0	527	517	0	512	37	5
12	0	0	0	0	970	514	0	513	36	5
13	0	0	0	0	1022	516	0	508	36	5
14	0	0	0	0	1022	515	0	514	37	5
15	0	0	0	0	926	518	0	512	37	5
0	0	0	0	0	449	517	0	503	36	5
1	0	0	0	0	248	516	0	518	36	5
2	0	0	0	0	113	512	0	508	36	5
3	0	0	0	0	206	516	0	508	36	5
4	0	0	0	0	449	517	0	506	36	5
5	0	0	0	0	241	514	0	514	37	5
6	0	0	0	0	297	515	0	515	38	5
7	0	0	0	0	335	513	0	528	38	5
8	0	0	0	0	470	515	0	507	37	5
9	0	0	0	0	348	517	0	508	37	5
10	0	0	0	0	538	518	0	513	36	5
11	0	0	0	0	423	517	0	511	36	5
12	0	0	0	0	423	513	0	514	36	5
13	0	0	0	0	575	514	0	511	36	5
14	0	0	0	0	576	513	0	509	36	5
15	0	0	0	0	360	516	0	510	37	5
0	0	0	0	0	584	518	0	519	37	5
1	0	0	0	0	415	515	0	515	37	5
2	0	0	0	0	314	519	0	508	37	5
3	0	0	0	0	407	516	0	504	37	5
4	0	0	0	0	565	514	0	511	37	5
5	0	0	0	0	698	516	0	509	37	5
6	0	0	0	0	727	515	0	510	37	5
7	0	0	0	0	381	517	0	507	37	5
8	0	0	0	0	318	515	0	510	36	5
9	0	0	0	0	381	517	0	511	36	5
10	0	0	0	0	786	516	0	507	36	5
11	0	0	0	0	271	517	0	505	37	5
12	0	0	0	0	271	516	0	508	36	5
13	0	0	0	0	558	514	0	512	36	5
14	0	0	0	0	237	516	0	509	36	5
15	0	0	0	0	795	514	0	509	37	5
0	0	0	0	0	638	517	0	512	37	5
1	0	0	0	0	433	518	0	507	37	5
2	0	0	0	0	754	517	0	505	37	5
3	0	0	0	0	387	521	0	511	37	5
4	0	0	0	0	497	524	0	504	37	5
5	0	0	0	0	307	527	0	525	37	5
6	0	0	0	0	830	525	0	504	37	5
7	0	0	0	0	627	526	0	504	37	5
8	0	0	0	0	652	529	0	511	37	5
9	0	0	0	0	397	529	0	508	37	5
10	0	0	0	0	354	529	0	510	37	5
11	0	0	0	0	638	530	0	504	37	5
12	0	0	0	0	431	531	0	504	37	5
13	0	0	0	0	409	527	0	503	37	5
14	0	0	0	0	492	530	0	505	37	5
15	0	0	0	0	547	529	0	511	37	5
0	0	0	0	0	281	525	0	506	37	5
1	0	0	0	0	444	531	0	503	37	5
2	0	0	0	0	657	529	0	500	37	5
3	0	0	0	0	536	527	0	509	37	5
4	0	0	0	0	295	528	0	509	37	5
5	0	0	0	0	545	524	0	506	37	5
6	0	0	0	0	599	523	0	505	37	5
7	0	0	0	0	388	521	0	506	37	5
8	0	0	0	0	798	513	0	506	37	5
9	0	0	0	0	771	514	0	506	37	5
10	0	0	0	0	377	507	0	507	37	5
11	0	0	0	0	539	513	0	507	37	5
12	0	0	0	0	415	508	0	514	37	5
13	0	0	0	0	467	508	0	506	37	5
14	0	0	0	0	309	507	0	506	37	5
15	0	0	0	0	480	508	0	507	37	5
0	0	0	0	0	643	504	0	510	37	5
1	0	0	0	0	139	505	0	508	37	5
2	0	0	0	0	361	503	0	508	37	5
3	0	0	0	0	831	504	0	512	37	5
4	0	0	0	0	126	502	0	508	37	5
5	0	0	0	0	187	507	0	509	37	5
6	0	0	0	0	449	503	0	506	37	5
7	0	0	0	0	602	504	0	503	37	5
8	0	0	0	0	331	505	0	509	37	5
9	0	0	0	0	579	506	0	508	37	5
10	0	0	0	0	612	508	0	511	37	5
11	0	0	0	0	625	506	0	512	37	5
12	0	0	0	0	417	508	0	514	37	5
13	0	0	0	0	502	514	0	510	36	4
14	0	0	0	0	403	521	0	512	36	4
15	0	0	0	0	645	519	0	515	37	4
0	0	0	0	0	246	523	0	512	37	4
1	0	0	0	0	338	526	0	508	37	4
2	0	0	0	0	532	527	0	509	37	4
3	0	0	0	0	369	531	0	521	38	4
4	0	0	0	0	902	527	0	509	37	4
5	0	0	0	0	487	526	0	512	37	4
6	0	0	0	0	643	524	0	505	37	4
7	0	0	0	0	370	524	0	507	37	4
8	0	0	0	0	320	514	0	512	37	4
9	0	0	0	0	703	512	0	520	37	4
10	0	0	0	0	377	509	0	514	37	4
11	0	0	0	0	883	505	0	510	37	4
12	0	0	0	0	607	499	0	511	37	4
13	0	0	0	0	468	500	0	510	37	4
14	0	0	0	0	671	502	0	511	37	4
15	0	0	0	0	419	496	0	517	38	4
0	0	0	0	0	862	496	0	514	37	4
1	0	0	0	0	782	500	0	510	37	4
2	0	0	0	0	405	496	0	516	37	4
3	0	0	0	0	280	497	0	519	38	4
4	0	0	0	0	655	498	0	527	37	4
5	0	0	0	0	738	498	0	509	37	4
6	0	0	0	0	441	500	0	512	37	4
7	0	0	0	0	653	499	0	516	38	4
8	0	0	0	0	484	504	0	516	37	4
9	0	0	0	0	791	504	0	511	37	4
10	0	0	0	0	488	504	0	512	37	4
11	0	0	0	0	351	505	0	513	38	4
12	0	0	0	0	608	508	0	519	37	4
13	0	0	0	0	475	510	0	513	36	4
14	0	0	0	0	431	508	0	512	36	4
15	0	0	0	0	542	508	0	508	37	4
0	0	0	0	0	465	509	0	512	37	4
1	0	0	0	0	525	513	0	510	37	4
2	0	0	0	0	630	509	0	514	37	4
3	0	0	0	0	455	512	0	519	37	4
4	0	0	0	0	542	511	0	514	37	4
5	0	0	0	0	499	512	0	515	37	4
6	0	0	0	0	506	513	0	516	37	4
7	0	0	0	0	520	514	0	514	37	4
8	0	0	0	0	480	514	0	510	37	4
9	0	0	0	0	556	514	0	513	37	4
10	0	0	0	0	490	513	0	515	37	4
11	0	0	0	0	559	516	0	515	37	4
12	0	0	0	0	448	516	0	506	37	4
13	0	0	0	0	509	515	0	511	37	4
14	0	0	0	0	552	513	0	512	37	4
15	0	0	0	0	521	516	0	513	37	4
0	0	0	0	0	539	517	0	513	37	4
1	0	0	0	0	503	519	0	519	37	4
2	0	0	0	0	488	519	0	510	37	4
3	0	0	0	0	508	523	0	511	37	4
4	0	0	0	0	484	529	0	515	37	4
5	0	0	0	0	452	533	0	510	37	4
6	0	0	0	0	452	540	0	512	37	4
7	0	0	0	0	506	543	0	512	37	4
8	0	0	0	0	493	553	0	524	37	4
9	0	0	0	0	511	559	0	518	37	4
10	0	0	0	0	551	561	0	514	37	3
11	0	0	0	0	531	564	0	512	37	3
12	0	0	0	0	529	567	0	513	37	3
13	0	0	0	0	479	572	0	516	37	3
14	0	0	0	0	456	572	0	512	37	3
15	0	0	0	0	506	574	0	516	37	3
0	0	0	0	0	463	578	0	516	37	3
1	0	0	0	0	437	572	0	514	37	3
2	0	0	0	0	373	573	0	514	37	3
3	0	0	0	0	389	569	0	513	37	3
4	0	0	0	0	419	560	0	511	37	4
5	0	0	0	0	355	555	0	513	37	4
6	0	0	0	0	277	545	0	512	37	4
7	0	0	0	0	287	535	0	508	37	4
8	0	0	0	0	455	526	0	508	37	4
9	0	0	0	0	555	511	0	511	37	4
10	0	0	0	0	671	502	0	514	37	4
11	0	0	0	0	661	490	0	526	37	4
12	0	0	0	0	654	484	0	514	37	4
13	0	0	0	0	653	480	0	518	37	4
14	0	0	0	0	610	476	0	519	37	4
15	0	0	0	0	594	472	0	520	37	4
0	0	0	0	0	558	472	0	513	37	4
1	0	0	0	0	586	476	0	507	37	4
2	0	0	0	0	562	476	0	511	37	4
3	0	0	0	0	536	476	0	516	37	4
4	0	0	0	0	583	479	0	513	37	4
5	0	0	0	0	536	483	0	514	37	4
6	0	0	0	0	506	488	0	512	37	4
7	0	0	0	0	486	494	0	516	37	4
8	0	0	0	0	549	499	0	516	37	4
9	0	0	0	0	561	500	0	512	37	4
10	0	0	0	0	510	502	0	513	37	4
11	0	0	0	0	545	505	0	515	37	4
12	0	0	0	0	509	505	0	513	37	4
13	0	0	0	0	554	504	0	516	37	4
14	0	0	0	0	530	505	0	514	37	4
15	0	0	0	0	540	501	0	508	37	4
0	0	0	0	0	523	500	0	513	37	4
1	0	0	0	0	551	501	0	516	37	4
2	0	0	0	0	555	501	0	517	37	4
3	0	0	0	0	539	501	0	512	37	4
4	0	0	0	0	510	499	0	516	37	4
5	0	0	0	0	503	503	0	509	37	4
6	0	0	0	0	539	506	0	512	37	4
7	0	0	0	0	494	510	0	510	37	4
8	0	0	0	0	522	514	0	512	37	4
9	0	0	0	0	518	515	0	511	37	4
10	0	0	0	0	524	521	0	518	37	4
11	0	0	0	0	526	521	0	512	37	4
12	0	0	0	0	517	520	0	512	37	4
13	0	0	0	0	537	521	0	512	37	4
14	0	0	0	0	514	518	0	511	37	4
15	0	0	0	0	533	513	0	512	37	4
0	0	0	0	0	518	511	0	513	37	4
1	0	0	0	0	514	507	0	511	36	4
2	0	0	0	0	529	505	0	514	36	4
3	0	0	0	0	514	501	0	508	37	4
4	0	0	0	0	519	501	0	512	37	4
5	0	0	0	0	511	502	0	512	37	4
6	0	0	0	0	514	498	0	512	37	4
7	0	0	0	0	507	499	0	516	37	4
8	0	0	0	0	533	494	0	518	36	4
9	0	0	0	0	517	497	0	511	36	4
10	0	0	0	0	550	495	0	510	37	4
11	0	0	0	0	508	495	0	508	37	4
12	0	0	0	0	513	496	0	512	37	4
13	0	0	0	0	524	495	0	508	37	4
14	0	0	0	0	501	493	0	504	37	4
15	0	0	0	0	521	493	0	507	37	4
0	0	0	0	0	512	495	0	510	37	4
1	0	0	0	0	511	496	0	511	37	4
2	0	0	0	0	516	498	0	516	37	4
3	0	0	0	0	508	499	0	515	37	4
4	0	0	0	0	526	498	0	511	37	4
5	0	0	0	0	504	500	0	516	37	4
6	0	0	0	0	507	503	0	512	37	4
7	0	0	0	0	533	504	0	513	37	4
8	0	0	0	0	501	504	0	511	37	4
9	0	0	0	0	514	505	0	513	37	4
10	0	0	0	0	531	508	0	506	37	4
11	0	0	0	0	557	506	0	514	37	4
12	0	0	0	0	486	509	0	514	37	4
13	0	0	0	0	535	509	0	516	37	4
14	0	0	0	0	513	510	0	511	37	4
15	0	0	0	0	532	510	0	508	37	4
0	0	0	0	0	507	509	0	504	36	4
1	0	0	0	0	502	512	0	510	37	4
2	0	0	0	0	552	514	0	516	37	4
3	0	0	0	0	500	516	0	509	37	4
4	0	0	0	0	496	515	0	510	37	4
5	0	0	0	0	516	517	0	510	37	4
6	0	0	0	0	513	514	0	506	37	4
7	0	0	0	0	538	516	0	515	37	4
8	0	0	0	0	513	518	0	509	37	4
9	0	0	0	0	525	514	0	508	37	4
10	0	0	0	0	500	519	0	511	37	4
11	0	0	0	0	508	520	0	515	37	4
12	0	0	0	0	529	519	0	510	36	4
13	0	0	0	0	520	519	0	512	36	4
14	0	0	0	0	532	522	0	510	37	4
15	0	0	0	0	538	520	0	509	37	4
0	0	0	0	0	486	521	0	504	37	4
1	0	0	0	0	503	519	0	502	37	4
2	0	0	0	0	491	521	0	509	37	4
3	0	0	0	0	531	524	0	507	37	4
4	0	0	0	0	517	522	0	513	37	4
5	0	0	0	0	508	521	0	511	37	4
6	0	0	0	0	541	524	0	509	36	4
7	0	0	0	0	508	527	0	502	37	4
8	0	0	0	0	526	525	0	509	37	4
9	0	0	0	0	537	524	0	502	37	4
10	0	0	0	0	534	522	0	506	37	4
11	0	0	0	0	470	522	0	507	37	4
12	0	0	0	0	520	526	0	508	37	4
13	0	0	0	0	518	524	0	503	37	4
14	0	0	0	0	525	523	0	507	37	4
15	0	0	0	0	501	521	0	507	37	4
0	0	0	0	0	504	524	0	504	37	4
1	0	0	0	0	534	523	0	506	37	4
2	0	0	0	0	433	527	0	510	37	4
3	0	0	0	0	552	523	0	510	37	4
4	0	0	0	0	483	523	0	509	37	3
5	0	0	0	0	461	523	0	514	37	3
6	0	0	0	0	553	524	0	509	37	3
7	0	0	0	0	492	524	0	513	37	3
8	0	0	0	0	515	527	0	509	37	3
9	0	0	0	0	563	526	0	513	37	3
10	0	0	0	0	486	524	0	506	37	3
11	0	0	0	0	609	527	0	507	37	3
12	0	0	0	0	468	527	0	515	36	3
13	0	0	0	0	501	528	0	512	36	3
14	0	0	0	0	492	529	0	510	37	3
15	0	0	0	0	473	525	0	514	37	3
0	0	0	0	0	485	525	0	508	37	3
1	0	0	0	0	521	524	0	514	37	3
2	0	0	0	0	631	524	0	516	37	3
3	0	0	0	0	1022	521	0	514	37	3
4	0	0	0	0	1022	521	0	511	37	3
5	0	0	0	0	1008	521	0	507	37	3
6	0	0	0	0	1022	520	0	510	37	3
7	0	0	0	0	487	519	0	515	37	3
8	0	0	0	0	543	518	0	510	37	3
9	0	0	0	0	346	517	0	511	36	3
10	0	0	0	0	380	518	0	513	36	3
11	0	0	0	0	214	518	0	516	37	3
12	0	0	0	0	357	521	0	512	37	3
13	0	0	0	0	66	518	0	505	37	3
14	0	0	0	0	336	520	0	513	37	3
15	0	0	0	0	111	519	0	512	37	3
0	0	0	0	0	542	517	0	516	37	3
1	0	0	0	0	326	518	0	516	36	3
2	0	0	0	0	407	518	0	508	36	3
3	0	0	0	0	163	519	0	513	37	3
4	0	0	0	0	379	518	0	512	37	3
5	0	0	0	0	180	518	0	513	37	3
6	0	0	0	0	408	522	0	513	37	3
7	0	0	0	0	358	519	0	517	37	4
8	0	0	0	0	297	522	0	509	37	4
9	0	0	0	0	794	517	0	515	37	4
10	0	0	0	0	812	518	0	515	37	4
11	0	0	0	0	340	519	0	515	37	4
12	0	0	0	0	550	519	0	506	37	4
13	0	0	0	0	667	516	0	515	37	4
14	0	0	0	0	644	517	0	514	37	4
15	0	0	0	0	727	515	0	514	37	4
0	0	0	0	0	288	516	0	518	37	4
1	0	0	0	0	527	516	0	524	36	4
2	0	0	0	0	251	517	0	512	37	4
3	0	0	0	0	519	518	0	513	37	4
4	0	0	0	0	415	519	0	517	37	4
5	0	0	0	0	223	514	0	517	37	4
6	0	0	0	0	480	515	0	515	37	4
7	0	0	0	0	725	514	0	513	37	4
8	0	0	0	0	277	512	0	512	37	4
9	0	0	0	0	609	512	0	515	37	4
10	0	0	0	0	570	513	0	512	37	4
11	0	0	0	0	580	517	0	512	37	4
12	0	0	0	0	569	512	0	515	36	4
13	0	0	0	0	467	515	0	515	36	4
14	0	0	0	0	589	509	0	513	36	4
15	0	0	0	0	416	512	0	517	37	4
0	0	0	0	0	293	515	0	512	36	4
1	0	0	0	0	765	514	0	515	36	4
2	0	0	0	0	409	514	0	513	37	4
3	0	0	0	0	232	516	0	513	37	4
4	0	0	0	0	702	516	0	514	37	4
5	0	0	0	0	385	518	0	521	37	4
6	0	0	0	0	438	519	0	509	37	4
7	0	0	0	0	550	515	0	509	37	4
8	0	0	0	0	556	516	0	516	37	4
9	0	0	0	0	622	516	0	514	37	4
10	0	0	0	0	316	516	0	526	37	4
11	0	0	0	0	760	519	0	506	37	4
12	0	0	0	0	491	513	0	519	36	4
13	0	0	0	0	765	516	0	511	36	4
14	0	0	0	0	622	515	0	511	36	4
15	0	0	0	0	527	513	0	512	36	4
0	0	0	0	0	462	512	0	509	36	4
1	0	0	0	0	406	509	0	512	37	4
2	0	0	0	0	452	509	0	516	36	4
3	0	0	0	0	734	509	0	527	37	4
4	0	0	0	0	421	511	0	511	36	4
5	0	0	0	0	426	512	0	510	37	4
6	0	0	0	0	750	510	0	516	37	4
7	0	0	0	0	350	514	0	515	37	4
8	0	0	0	0	569	513	0	512	37	4
9	0	0	0	0	946	515	0	510	37	4
10	0	0	0	0	610	515	0	519	37	4
11	0	0	0	0	560	516	0	508	37	4
12	0	0	0	0	255	513	0	512	37	4
13	0	0	0	0	566	515	0	512	37	4
14	0	0	0	0	638	520	0	510	37	3
15	0	0	0	0	495	525	0	516	37	3
0	0	0	0	0	501	529	0	511	37	3
1	0	0	0	0	608	532	0	511	37	3
2	0	0	0	0	514	532	0	515	37	3
3	0	0	0	0	628	531	0	509	37	3
4	0	0	0	0	984	533	0	510	37	3
5	0	0	0	0	471	534	0	511	37	3
6	0	0	0	0	556	535	0	516	37	3
7	0	0	0	0	350	531	0	510	37	3
8	0	0	0	0	616	532	0	511	37	3
9	0	0	0	0	350	529	0	511	37	3
10	0	0	0	0	249	530	0	516	37	3
11	0	0	0	0	584	526	0	515	37	3
12	0	0	0	0	468	523	0	513	37	3
13	0	0	0	0	307	518	0	517	37	3
14	0	0	0	0	865	517	0	510	37	3
15	0	0	0	0	447	513	0	515	37	3
0	0	0	0	0	606	511	0	512	37	3
1	0	0	0	0	724	511	0	514	37	3
2	0	0	0	0	585	508	0	508	37	3
3	0	0	0	0	493	504	0	516	37	3
4	0	0	0	0	445	505	0	516	37	3
5	0	0	0	0	610	503	0	504	37	3
6	0	0	0	0	602	500	0	508	37	3
7	0	0	0	0	490	499	0	510	37	3
8	0	0	0	0	408	500	0	514	37	3
9	0	0	0	0	412	499	0	514	37	3
10	0	0	0	0	494	497	0	508	37	3
11	0	0	0	0	491	497	0	512	37	3
12	0	0	0	0	638	497	0	515	36	3
13	0	0	0	0	424	497	0	507	36	3
14	0	0	0	0	456	501	0	510	36	3
15	0	0	0	0	505	495	0	515	37	3
0	0	0	0	0	517	498	0	521	36	3
1	0	0	0	0	547	499	0	520	36	3
2	0	0	0	0	506	499	0	515	37	3
3	0	0	0	0	504	504	0	514	37	3
4	0	0	0	0	516	505	0	518	36	3
5	0	0	0	0	417	508	0	512	37	3
6	0	0	0	0	384	508	0	516	37	3
7	0	0	0	0	463	513	0	513	38	3
8	0	0	0	0	480	517	0	520	37	3
9	0	0	0	0	469	520	0	511	37	3
10	0	0	0	0	529	525	0	513	37	3
11	0	0	0	0	499	530	0	512	37	3
12	0	0	0	0	545	541	0	519	37	3
13	0	0	0	0	543	543	0	515	38	3
14	0	0	0	0	324	549	0	517	37	3
15	0	0	0	0	275	545	0	516	37	3
0	0	0	0	0	170	545	0	510	37	3
1	0	0	0	0	177	537	0	511	37	3
2	0	0	0	0	292	529	0	515	37	3
3	0	0	0	0	565	515	0	512	38	3
4	0	0	0	0	710	506	0	513	38	3
5	0	0	0	0	706	501	0	508	38	3
6	0	0	0	0	683	491	0	511	38	3
7	0	0	0	0	659	491	0	507	37	2
8	0	0	0	0	624	489	0	516	37	2
9	0	0	0	0	630	489	0	508	37	2
10	0	0	0	0	581	494	0	514	37	2
11	0	0	0	0	572	490	0	512	38	2
12	0	0	0	0	605	492	0	510	37	2
13	0	0	0	0	569	493	0	506	37	2
14	0	0	0	0	559	492	0	510	38	2
15	0	0	0	0	557	494	0	507	38	2
0	0	0	0	0	552	496	0	509	37	2
1	0	0	0	0	560	497	0	511	37	2
2	0	0	0	0	510	501	0	507	37	2
3	0	0	0	0	579	499	0	515	38	2
4	0	0	0	0	525	499	0	509	37	2
5	0	0	0	0	527	504	0	511	38	2
6	0	0	0	0	545	505	0	509	38	2
7	0	0	0	0	545	510	0	510	38	2
8	0	0	0	0	568	509	0	513	38	2
9	0	0	0	0	530	508	0	510	38	2
10	0	0	0	0	537	511	0	504	37	2
11	0	0	0	0	521	511	0	507	37	2
12	0	0	0	0	517	513	0	508	37	2
13	0	0	0	0	538	511	0	514	37	2
14	0	0	0	0	505	513	0	509	38	2
15	0	0	0	0	545	515	0	505	38	2
0	0	0	0	0	507	518	0	506	38	2
1	0	0	0	0	529	517	0	508	37	2
2	0	0	0	0	517	518	0	512	37	2
3	0	0	0	0	516	517	0	504	38	2
4	0	0	0	0	499	518	0	519	37	2
5	0	0	0	0	519	517	0	510	37	2
6	0	0	0	0	531	518	0	508	37	2
7	0	0	0	0	536	518	0	510	38	2
8	0	0	0	0	483	518	0	505	38	2
9	0	0	0	0	564	517	0	513	38	2
10	0	0	0	0	516	522	0	513	38	2
11	0	0	0	0	509	520	0	509	38	2
12	0	0	0	0	525	519	0	509	38	2
13	0	0	0	0	518	521	0	513	38	2
14	0	0	0	0	527	523	0	513	37	2
15	0	0	0	0	514	518	0	508	38	2
0	0	0	0	0	523	521	0	515	37	2
1	0	0	0	0	521	521	0	506	37	2
2	0	0	0	0	536	520	0	511	37	2
3	0	0	0	0	499	521	0	514	37	2
4	0	0	0	0	516	522	0	508	37	2
5	0	0	0	0	525	520	0	512	37	2
6	0	0	0	0	519	520	0	510	37	2
7	0	0	0	0	525	521	0	514	38	2
8	0	0	0	0	522	520	0	510	37	2
9	0	0	0	0	526	522	0	506	37	2
10	0	0	0	0	517	521	0	506	37	2
11	0	0	0	0	510	519	0	510	37	2
12	0	0	0	0	538	521	0	507	37	2
13	0	0	0	0	511	521	0	505	37	3
14	0	0	0	0	510	522	0	506	37	3
15	0	0	0	0	514	515	0	508	37	3
0	0	0	0	0	524	515	0	507	37	3
1	0	0	0	0	519	519	0	504	37	3
2	0	0	0	0	524	519	0	510	38	3
3	0	0	0	0	515	518	0	504	38	3
4	0	0	0	0	517	520	0	502	38	3
5	0	0	0	0	512	523	0	503	38	3
6	0	0	0	0	530	520	0	507	37	3
7	0	0	0	0	511	519	0	499	37	3
8	0	0	0	0	517	519	0	514	37	3
9	0	0	0	0	518	519	0	508	37	3
10	0	0	0	0	520	518	0	507	37	3
11	0	0	0	0	510	519	0	505	37	3
12	0	0	0	0	493	522	0	507	37	3
13	0	0	0	0	525	523	0	504	38	3
14	0	0	0	0	521	518	0	508	37	3
15	0	0	0	0	512	519	0	508	37	3
0	0	0	0	0	531	520	0	509	37	3
1	0	0	0	0	507	521	0	507	37	3
2	0	0	0	0	510	523	0	512	37	3
3	0	0	0	0	531	522	0	507	37	3
4	0	0	0	0	509	524	0	513	37	3
5	0	0	0	0	508	526	0	505	37	3
6	0	0	0	0	517	528	0	507	37	3
7	0	0	0	0	513	524	0	501	38	3
8	0	0	0	0	503	523	0	511	37	3
9	0	0	0	0	567	521	0	507	37	3
10	0	0	0	0	513	520	0	511	37	3
11	0	0	0	0	497	517	0	508	37	3
12	0	0	0	0	514	520	0	505	37	3
13	0	0	0	0	547	515	0	507	37	3
14	0	0	0	0	499	516	0	520	37	3
15	0	0	0	0	517	517	0	512	37	3
0	0	0	0	0	507	517	0	502	37	3
1	0	0	0	0	487	515	0	506	37	3
2	0	0	0	0	557	515	0	511	37	3
3	0	0	0	0	519	515	0	513	37	3
4	0	0	0	0	552	514	0	510	37	3
5	0	0	0	0	533	506	0	520	37	3
6	0	0	0	0	590	509	0	517	37	3
7	0	0	0	0	554	508	0	513	37	3
8	0	0	0	0	665	511	0	518	37	3
9	0	0	0	0	680	508	0	518	37	3
10	0	0	0	0	639	509	0	509	37	3
11	0	0	0	0	530	510	0	513	37	3
12	0	0	0	0	513	512	0	511	37	3
13	0	0	0	0	606	510	0	512	37	3
14	0	0	0	0	639	513	0	515	37	3
15	0	0	0	0	600	509	0	510	37	2
0	0	0	0	0	689	512	0	515	37	2
1	0	0	0	0	570	512	0	519	37	2
2	0	0	0	0	546	514	0	513	37	2
3	0	0	0	0	493	511	0	516	37	2
4	0	0	0	0	481	512	0	516	37	2
5	0	0	0	0	581	516	0	511	37	2
6	0	0	0	0	505	512	0	512	37	2
7	0	0	0	0	421	510	0	510	38	2
8	0	0	0	0	405	514	0	508	37	2
9	0	0	0	0	418	513	0	508	37	2
10	0	0	0	0	462	512	0	508	37	2
11	0	0	0	0	564	511	0	508	37	2
12	0	0	0	0	419	513	0	1018	37	2
13	0	0	0	0	449	514	0	583	37	2
14	0	0	0	0	395	513	0	422	37	2
15	0	0	0	0	454	513	0	419	37	2
0	0	0	0	0	361	512	0	430	37	2
1	0	0	0	0	452	513	0	435	37	2
2	0	0	0	0	586	514	0	442	37	2
3	0	0	0	0	414	513	0	445	37	2
4	0	0	0	0	370	517	0	450	37	2
5	0	0	0	0	558	515	0	457	37	2
6	0	0	0	0	390	517	0	462	37	2
7	0	0	0	0	573	512	0	467	37	3
8	0	0	0	0	441	515	0	466	37	3
9	0	0	0	0	501	513	0	476	37	3
10	0	0	0	0	314	512	0	483	37	3
11	0	0	0	0	610	514	0	485	37	3
12	0	0	0	0	647	515	0	480	37	3
13	0	0	0	0	433	513	0	489	38	3
14	0	0	0	0	360	513	0	490	38	3
15	0	0	0	0	503	516	0	495	38	3
0	0	0	0	0	213	515	0	499	39	3
1	0	0	0	0	430	513	0	496	39	3
2	0	0	0	0	785	516	0	501	37	3
3	0	0	0	0	419	514	0	503	37	3
4	0	0	0	0	321	517	0	502	37	3
5	0	0	0	0	502	515	0	503	36	3
6	0	0	0	0	396	516	0	496	35	3
7	0	0	0	0	856	519	0	500	35	3
8	0	0	0	0	808	519	0	506	35	3
9	0	0	0	0	622	517	0	499	37	3
10	0	0	0	0	364	516	0	502	38	3
11	0	0	0	0	525	512	0	518	39	3
12	0	0	0	0	599	514	0	505	38	3
13	0	0	0	0	379	513	0	508	39	3
14	0	0	0	0	510	512	0	507	39	3
15	0	0	0	0	437	516	0	497	40	4
0	0	0	0	0	285	516	0	497	39	4
1	0	0	0	0	531	516	0	503	39	4
2	0	0	0	0	471	516	0	510	38	4
3	0	0	0	0	514	517	0	508	38	4
4	0	0	0	0	280	515	0	518	37	4
5	0	0	0	0	415	518	0	515	36	4
6	0	0	0	0	844	517	0	518	36	4
7	0	0	0	0	579	518	0	516	36	4
8	0	0	0	0	723	515	0	516	36	4
9	0	0	0	0	340	517	0	518	37	4
10	0	0	0	0	326	517	0	523	38	4
11	0	0	0	0	721	513	0	524	39	4
12	0	0	0	0	412	516	0	521	39	4
13	0	0	0	0	382	519	0	520	39	4
14	0	0	0	0	513	518	0	522	39	4
15	0	0	0	0	610	517	0	524	39	4
0	0	0	0	0	610	514	0	515	38	5
1	0	0	0	0	521	517	0	521	38	5
2	0	0	0	0	319	520	0	515	38	5
3	0	0	0	0	630	517	0	521	39	5
4	0	0	0	0	449	515	0	519	38	5
5	0	0	0	0	513	514	0	518	37	5
6	0	0	0	0	507	519	0	518	37	5
7	0	0	0	0	713	515	0	521	38	5
8	0	0	0	0	707	516	0	517	38	5
9	0	0	0	0	438	516	0	520	38	5
10	0	0	0	0	569	511	0	518	38	5
11	0	0	0	0	403	513	0	521	37	5
12	0	0	0	0	625	515	0	516	36	5
13	0	0	0	0	391	513	0	523	37	5
14	0	0	0	0	561	513	0	517	37	5
15	0	0	0	0	525	512	0	515	37	4
0	0	0	0	0	611	513	0	512	37	4
1	0	0	0	0	393	511	0	509	36	4
2	0	0	0	0	484	513	0	510	36	4
3	0	0	0	0	459	513	0	514	37	4
4	0	0	0	0	629	514	0	514	38	4
5	0	0	0	0	391	516	0	507	38	4
6	0	0	0	0	453	518	0	509	38	4
7	0	0	0	0	750	515	0	508	38	4
8	0	0	0	0	364	514	0	515	37	4
9	0	0	0	0	449	512	0	519	36	4
10	0	0	0	0	586	515	0	513	36	4
11	0	0	0	0	332	516	0	512	37	4
12	0	0	0	0	514	513	0	515	37	4
13	0	0	0	0	625	515	0	517	38	4
14	0	0	0	0	332	516	0	510	39	5
15	0	0	0	0	537	512	0	515	39	5
0	0	0	0	0	286	516	0	524	39	5
1	0	0	0	0	476	515	0	517	37	5
2	0	0	0	0	460	515	0	511	37	5
3	0	0	0	0	497	515	0	516	37	5
4	0	0	0	0	623	517	0	516	37	5
5	0	0	0	0	527	519	0	516	37	5
6	0	0	0	0	405	517	0	518	37	5
7	0	0	0	0	400	515	0	515	38	5
8	0	0	0	0	544	518	0	518	38	5
9	0	0	0	0	540	514	0	519	38	5
10	0	0	0	0	531	517	0	521	38	5
11	0	0	0	0	477	516	0	519	38	5
12	0	0	0	0	549	519	0	517	39	5
13	0	0	0	0	419	519	0	518	39	5
14	0	0	0	0	458	519	0	521	40	5
15	0	0	0	0	488	518	0	514	40	5
0	0	0	0	0	304	518	0	519	39	5
1	0	0	0	0	387	519	0	520	38	5
2	0	0	0	0	313	519	0	521	37	5
3	0	0	0	0	529	518	0	515	37	5
4	0	0	0	0	561	516	0	516	37	5
5	0	0	0	0	623	517	0	518	38	5
6	0	0	0	0	607	518	0	521	39	5
7	0	0	0	0	550	515	0	521	40	5
8	0	0	0	0	606	515	0	518	39	5
9	0	0	0	0	545	517	0	519	39	5
10	0	0	0	0	598	518	0	519	38	5
11	0	0	0	0	564	515	0	514	37	5
12	0	0	0	0	571	516	0	519	36	5
13	0	0	0	0	499	518	0	515	35	5
14	0	0	0	0	549	519	0	520	36	5
15	0	0	0	0	567	517	0	521	38	5
0	0	0	0	0	547	519	0	516	39	5
1	0	0	0	0	490	524	0	519	39	5
2	0	0	0	0	504	533	0	520	36	5
3	0	0	0	0	544	547	0	517	38	5
4	0	0	0	0	496	571	0	514	39	5
5	0	0	0	0	452	582	0	515	39	5
6	0	0	0	0	547	572	0	517	39	5
7	0	0	0	0	584	551	0	516	38	5
8	0	0	0	0	490	531	0	517	37	5
9	0	0	0	0	503	513	0	516	37	5
10	0	0	0	0	557	507	0	515	37	5
11	0	0	0	0	510	494	0	519	37	5
12	0	0	0	0	579	494	0	519	37	5
13	0	0	0	0	486	491	0	527	37	5
14	0	0	0	0	499	490	0	520	38	5
15	0	0	0	0	522	492	0	519	39	5
0	0	0	0	0	754	488	0	519	40	5
1	0	0	0	0	469	493	0	519	40	5
2	0	0	0	0	560	490	0	520	40	5
3	0	0	0	0	554	497	0	519	39	5
4	0	0	0	0	558	492	0	515	38	5
5	0	0	0	0	506	497	0	510	37	5
6	0	0	0	0	567	497	0	520	37	5
7	0	0	0	0	514	499	0	515	37	5
8	0	0	0	0	507	501	0	520	37	5
9	0	0	0	0	526	500	0	521	37	5
10	0	0	0	0	549	503	0	518	37	5
11	0	0	0	0	521	502	0	519	38	5
12	0	0	0	0	543	505	0	521	38	5
13	0	0	0	0	489	508	0	517	38	5
14	0	0	0	0	530	510	0	514	39	5
15	0	0	0	0	496	510	0	518	39	5
0	0	0	0	0	502	512	0	513	39	5
1	0	0	0	0	509	510	0	512	38	5
2	0	0	0	0	513	513	0	512	37	5
3	0	0	0	0	517	510	0	518	37	5
4	0	0	0	0	554	510	0	518	37	5
5	0	0	0	0	530	511	0	515	37	5
6	0	0	0	0	513	512	0	510	38	5
7	0	0	0	0	507	511	0	518	39	5
8	0	0	0	0	503	512	0	513	39	5
9	0	0	0	0	490	514	0	513	39	5
10	0	0	0	0	512	516	0	513	38	5
11	0	0	0	0	514	520	0	515	37	5
12	0	0	0	0	524	519	0	519	37	5
13	0	0	0	0	467	518	0	513	37	5
14	0	0	0	0	529	515	0	517	37	5
15	0	0	0	0	523	520	0	528	38	5
0	0	0	0	0	534	518	0	519	38	5
1	0	0	0	0	529	516	0	519	38	5
2	0	0	0	0	500	515	0	512	37	5
3	0	0	0	0	527	513	0	512	38	5
4	0	0	0	0	516	514	0	512	37	5
5	0	0	0	0	525	515	0	514	37	5
6	0	0	0	0	489	519	0	512	37	5
7	0	0	0	0	533	517	0	510	37	5
8	0	0	0	0	536	515	0	516	37	5
9	0	0	0	0	476	515	0	511	38	5
10	0	0	0	0	521	516	0	510	39	5
11	0	0	0	0	503	515	0	507	39	5
12	0	0	0	0	515	513	0	515	38	5
13	0	0	0	0	536	515	0	517	37	5
14	0	0	0	0	517	515	0	516	37	5
15	0	0	0	0	502	513	0	519	37	5
0	0	0	0	0	527	511	0	509	38	5
1	0	0	0	0	508	515	0	512	37	5
2	0	0	0	0	535	512	0	509	36	5
3	0	0	0	0	505	515	0	509	34	5
4	0	0	0	0	542	516	0	504	34	5
5	0	0	0	0	499	516	0	511	36	5
6	0	0	0	0	539	514	0	510	37	5
7	0	0	0	0	489	516	0	515	38	5
8	0	0	0	0	531	519	0	518	37	5
9	0	0	0	0	493	516	0	517	37	5
10	0	0	0	0	540	517	0	519	37	5
11	0	0	0	0	545	516	0	524	38	5
12	0	0	0	0	501	518	0	516	40	5
13	0	0	0	0	506	518	0	519	41	5
14	0	0	0	0	532	516	0	511	41	5
15	0	0	0	0	512	515	0	516	40	5
0	0	0	0	0	506	517	0	516	38	5
1	0	0	0	0	505	517	0	519	37	6
2	0	0	0	0	515	516	0	514	38	6
3	0	0	0	0	504	517	0	512	37	5
4	0	0	0	0	511	515	0	514	37	5
5	0	0	0	0	519	516	0	511	36	5
6	0	0	0	0	505	512	0	510	34	5
7	0	0	0	0	496	515	0	508	36	5
8	0	0	0	0	550	514	0	511	38	5
9	0	0	0	0	511	516	0	510	39	5
10	0	0	0	0	501	518	0	508	38	5
11	0	0	0	0	519	516	0	512	36	5
12	0	0	0	0	519	520	0	506	35	5
13	0	0	0	0	505	515	0	509	34	5
14	0	0	0	0	526	521	0	508	35	5
15	0	0	0	0	496	522	0	512	37	4
0	0	0	0	0	503	527	0	519	38	4
1	0	0	0	0	537	528	0	509	39	4
2	0	0	0	0	503	534	0	511	39	4
3	0	0	0	0	516	536	0	510	38	4
4	0	0	0	0	516	534	0	510	36	3
5	0	0	0	0	515	532	0	507	36	3
6	0	0	0	0	511	524	0	509	36	3
7	0	0	0	0	487	524	0	512	34	3
8	0	0	0	0	558	518	0	515	34	3
9	0	0	0	0	507	511	0	518	35	3
10	0	0	0	0	499	510	0	515	36	3
11	0	0	0	0	537	510	0	508	38	3
12	0	0	0	0	500	509	0	509	40	3
13	0	0	0	0	509	507	0	510	40	3
14	0	0	0	0	510	508	0	508	41	3
15	0	0	0	0	531	507	0	513	41	3
0	0	0	0	0	505	511	0	515	42	3
1	0	0	0	0	504	510	0	508	43	3
2	0	0	0	0	511	510	0	511	42	3
3	0	0	0	0	518	508	0	513	40	3
4	0	0	0	0	516	511	0	517	36	3
5	0	0	0	0	518	512	0	515	32	3
6	0	0	0	0	504	511	0	509	29	3
7	0	0	0	0	527	509	0	515	33	3
8	0	0	0	0	511	511	0	508	36	3
9	0	0	0	0	506	511	0	512	39	3
10	0	0	0	0	518	512	0	511	39	2
11	0	0	0	0	505	513	0	507	38	2
12	0	0	0	0	507	516	0	512	37	2
13	0	0	0	0	508	517	0	510	36	2
14	0	0	0	0	527	514	0	514	35	2
15	0	0	0	0	524	515	0	509	34	2
0	0	0	0	0	494	516	0	510	35	2
1	0	0	0	0	531	515	0	512	34	2
2	0	0	0	0	512	511	0	508	35	2
3	0	0	0	0	514	511	0	516	36	2
4	0	0	0	0	520	511	0	512	34	2
5	0	0	0	0	510	508	0	515	35	3
6	0	0	0	0	531	511	0	509	36	3
7	0	0	0	0	516	510	0	508	37	3
8	0	0	0	0	516	510	0	507	37	3
9	0	0	0	0	516	511	0	505	39	3
10	0	0	0	0	510	514	0	508	39	3
11	0	0	0	0	518	514	0	504	40	3
12	0	0	0	0	513	512	0	506	40	3
13	0	0	0	0	504	515	0	505	38	3
14	0	0	0	0	508	516	0	502	37	2
15	0	0	0	0	505	513	0	506	39	2
0	0	0	0	0	515	515	0	504	37	2
1	0	0	0	0	524	512	0	506	37	2
2	0	0	0	0	518	512	0	509	37	2
3	0	0	0	0	527	513	0	503	36	2
4	0	0	0	0	519	512	0	503	36	2
5	0	0	0	0	514	515	0	512	37	2
6	0	0	0	0	510	516	0	502	37	2
7	0	0	0	0	509	515	0	506	37	2
8	0	0	0	0	530	516	0	502	37	2
9	0	0	0	0	508	514	0	502	36	2
10	0	0	0	0	519	515	0	500	35	2
11	0	0	0	0	528	513	0	507	37	2
12	0	0	0	0	515	513	0	502	37	2
13	0	0	0	0	534	518	0	507	38	2
14	0	0	0	0	519	515	0	508	37	2
15	0	0	0	0	505	519	0	504	37	2
0	0	0	0	0	519	517	0	507	36	2
1	0	0	0	0	512	518	0	504	36	2
2	0	0	0	0	514	520	0	506	36	1
3	0	0	0	0	509	519	0	508	36	1
4	0	0	0	0	519	523	0	507	36	1
5	0	0	0	0	532	522	0	504	36	1
6	0	0	0	0	507	522	0	508	36	1
7	0	0	0	0	503	523	0	511	37	1
8	0	0	0	0	521	520	0	508	36	1
9	0	0	0	0	530	518	0	507	37	1
10	0	0	0	0	524	517	0	509	38	1
11	0	0	0	0	520	517	0	511	37	1
12	0	0	0	0	510	516	0	506	37	1
13	0	0	0	0	512	519	0	507	37	1
14	0	0	0	0	516	517	0	513	36	1
15	0	0	0	0	516	527	0	523	36	1
0	0	0	0	0	514	528	0	516	36	1
1	0	0	0	0	514	532	0	518	36	1
2	0	0	0	0	517	534	0	515	37	1
3	0	0	0	0	515	538	0	513	37	1
4	0	0	0	0	521	539	0	510	36	1
5	0	0	0	0	520	542	0	510	37	1
6	0	0	0	0	524	544	0	518	38	1
7	0	0	0	0	508	546	0	511	38	1
8	0	0	0	0	511	545	0	511	38	1
9	0	0	0	0	518	548	0	515	37	1
10	0	0	0	0	513	547	0	514	31	1
11	0	0	0	0	523	544	0	515	35	1
12	0	0	0	0	521	539	0	510	36	1
13	0	0	0	0	506	536	0	513	36	1
14	0	0	0	0	511	533	0	510	37	1
15	0	0	0	0	511	531	0	512	37	1
0	0	0	0	0	519	524	0	511	37	1
1	0	0	0	0	517	519	0	512	37	1
2	0	0	0	0	519	518	0	511	37	1
3	0	0	0	0	526	512	0	510	37	1
4	0	0	0	0	523	510	0	515	37	1
5	0	0	0	0	518	508	0	509	36	1
6	0	0	0	0	512	512	0	510	36	1
7	0	0	0	0	504	510	0	511	36	1
8	0	0	0	0	540	511	0	507	36	1
9	0	0	0	0	513	511	0	511	36	1
10	0	0	0	0	515	514	0	511	36	1
11	0	0	0	0	519	515	0	504	37	1
12	0	0	0	0	533	506	0	516	37	1
13	0	0	0	0	502	511	0	521	37	1
14	0	0	0	0	524	507	0	512	37	1
15	0	0	0	0	510	502	0	507	37	1
0	0	0	0	0	518	499	0	509	36	1
1	0	0	0	0	520	498	0	508	36	1
2	0	0	0	0	534	498	0	511	36	1
3	0	0	0	0	523	494	0	511	37	1
4	0	0	0	0	511	492	0	512	36	1
5	0	0	0	0	515	490	0	513	36	1
6	0	0	0	0	523	492	0	515	36	1
7	0	0	0	0	513	492	0	506	37	1
8	0	0	0	0	509	493	0	514	37	1
9	0	0	0	0	512	494	0	504	37	1
10	0	0	0	0	510	494	0	509	37	1
11	0	0	0	0	510	491	0	512	37	1
12	0	0	0	0	519	492	0	507	36	1
13	0	0	0	0	512	494	0	506	36	1
14	0	0	0	0	511	497	0	511	36	1
15	0	0	0	0	514	499	0	507	36	1
0	0	0	0	0	510	496	0	512	35	1
1	0	0	0	0	521	498	0	513	35	1
2	0	0	0	0	522	498	0	509	36	1
3	0	0	0	0	505	499	0	513	36	1
4	0	0	0	0	502	501	0	513	36	1
5	0	0	0	0	515	501	0	516	36	1
6	0	0	0	0	518	499	0	523	36	1
7	0	0	0	0	513	507	0	517	37	1
8	0	0	0	0	507	505	0	511	37	1
9	0	0	0	0	516	508	0	511	36	1
10	0	0	0	0	498	508	0	512	35	1
11	0	0	0	0	512	509	0	512	36	1
12	0	0	0	0	517	515	0	512	36	1
13	0	0	0	0	511	511	0	511	36	1
14	0	0	0	0	514	510	0	513	36	1
15	0	0	0	0	529	513	0	510	36	1
0	0	0	0	0	507	512	0	516	36	1
1	0	0	0	0	514	514	0	516	36	1
2	0	0	0	0	510	516	0	516	36	1
3	0	0	0	0	521	518	0	511	36	1
4	0	0	0	0	524	521	0	513	36	1
5	0	0	0	0	515	520	0	512	36	1
6	0	0	0	0	506	518	0	514	36	1
7	0	0	0	0	519	518	0	512	36	1
8	0	0	0	0	514	521	0	512	36	1
9	0	0	0	0	513	516	0	514	36	1
10	0	0	0	0	513	520	0	518	36	1
11	0	0	0	0	531	519	0	514	36	1
12	0	0	0	0	494	521	0	519	36	1
13	0	0	0	0	562	519	0	514	36	1
14	0	0	0	0	502	518	0	514	36	1
15	0	0	0	0	509	520	0	517	36	1
0	0	0	0	0	496	522	0	515	36	1
1	0	0	0	0	512	522	0	518	36	1
2	0	0	0	0	517	518	0	515	36	1
3	0	0	0	0	517	519	0	517	36	1
4	0	0	0	0	529	523	0	518	36	1
5	0	0	0	0	516	519	0	515	35	1
6	0	0	0	0	529	519	0	516	36	1
7	0	0	0	0	526	520	0	517	36	1
8	0	0	0	0	508	521	0	516	36	1
9	0	0	0	0	478	521	0	518	36	1
10	0	0	0	0	530	523	0	520	36	1
11	0	0	0	0	510	524	0	516	36	1
12	0	0	0	0	512	523	0	524	35	1
13	0	0	0	0	518	524	0	517	35	1
14	0	0	0	0	526	528	0	518	36	1
15	0	0	0	0	502	522	0	518	36	1
0	0	0	0	0	514	526	0	522	36	1
1	0	0	0	0	523	520	0	518	36	1
2	0	0	0	0	512	519	0	516	35	1
3	0	0	0	0	508	520	0	517	36	1
4	0	0	0	0	524	520	0	518	36	1
5	0	0	0	0	510	518	0	518	35	1
6	0	0	0	0	518	517	0	518	35	0
7	0	0	0	0	514	516	0	524	36	0
8	0	0	0	0	510	519	0	519	35	0
9	0	0	0	0	514	521	0	519	35	0
10	0	0	0	0	516	519	0	508	35	0
11	0	0	0	0	503	519	0	512	36	0
12	0	0	0	0	523	521	0	517	35	0
13	0	0	0	0	512	519	0	519	35	0
14	0	0	0	0	510	519	0	515	35	0
15	0	0	0	0	531	521	0	513	35	0
0	0	0	0	0	514	525	0	516	35	0
1	0	0	0	0	513	522	0	519	35	0
2	0	0	0	0	515	523	0	526	35	0
3	0	0	0	0	515	523	0	519	36	0
4	0	0	0	0	521	521	0	516	35	0
5	0	0	0	0	513	524	0	520	35	0
6	0	0	0	0	524	523	0	517	35	0
7	0	0	0	0	506	525	0	512	36	1
8	0	0	0	0	502	526	0	520	35	1
9	0	0	0	0	541	526	0	518	35	1
10	0	0	0	0	508	527	0	519	35	1
11	0	0	0	0	503	525	0	524	36	1
12	0	0	0	0	517	527	0	523	35	1
13	0	0	0	0	506	529	0	520	35	1
14	0	0	0	0	524	528	0	518	35	1
15	0	0	0	0	504	525	0	527	35	1
0	0	0	0	0	531	524	0	521	35	1
1	0	0	0	0	505	522	0	519	35	1
2	0	0	0	0	504	519	0	517	35	1
3	0	0	0	0	518	521	0	520	35	1
4	0	0	0	0	511	524	0	519	35	1
5	0	0	0	0	493	524	0	517	35	1
6	0	0	0	0	511	525	0	523	35	1
7	0	0	0	0	508	525	0	524	35	1
8	0	0	0	0	519	523	0	525	35	1
9	0	0	0	0	513	518	0	522	35	1
10	0	0	0	0	521	513	0	523	35	2
11	0	0	0	0	517	508	0	522	36	2
12	0	0	0	0	509	505	0	521	35	2
13	0	0	0	0	531	500	0	516	35	2
14	0	0	0	0	508	495	0	518	35	2
15	0	0	0	0	528	489	0	513	36	2
0	0	0	0	0	512	487	0	516	35	2
1	0	0	0	0	515	490	0	519	35	2
2	0	0	0	0	506	494	0	519	35	2
3	0	0	0	0	514	504	0	518	35	2
4	0	0	0	0	517	513	0	519	35	2
5	0	0	0	0	519	524	0	515	35	2
6	0	0	0	0	509	534	0	511	35	2
7	0	0	0	0	507	537	0	516	36	2
8	0	0	0	0	541	536	0	514	35	2
9	0	0	0	0	503	535	0	515	35	2
10	0	0	0	0	559	525	0	515	35	2
11	0	0	0	0	508	518	0	516	35	2
12	0	0	0	0	526	514	0	517	35	2
13	0	0	0	0	504	508	0	510	35	2
14	0	0	0	0	515	501	0	511	35	2
15	0	0	0	0	515	501	0	513	35	2
0	0	0	0	0	510	496	0	509	35	2
1	0	0	0	0	511	495	0	510	34	2
2	0	0	0	0	524	493	0	509	34	2
3	0	0	0	0	509	493	0	509	35	2
4	0	0	0	0	512	499	0	509	34	2
5	0	0	0	0	514	493	0	511	34	2
6	0	0	0	0	511	497	0	511	34	2
7	0	0	0	0	514	501	0	507	34	2
8	0	0	0	0	527	503	0	508	34	2
9	0	0	0	0	507	509	0	507	34	2
10	0	0	0	0	515	507	0	511	33	2
11	0	0	0	0	515	513	0	509	33	2
12	0	0	0	0	496	510	0	511	34	1
13	0	0	0	0	516	507	0	509	33	1
14	0	0	0	0	527	512	0	513	33	1
15	0	0	0	0	531	510	0	511	33	1
0	0	0	0	0	491	511	0	504	32	1
1	0	0	0	0	527	515	0	506	32	1
2	0	0	0	0	500	516	0	511	32	1
3	0	0	0	0	511	517	0	509	32	1
4	0	0	0	0	532	518	0	503	32	1
5	0	0	0	0	518	518	0	517	32	1
6	0	0	0	0	515	523	0	515	32	1
7	0	0	0	0	519	518	0	507	32	1
8	0	0	0	0	523	524	0	516	32	1
9	0	0	0	0	515	522	0	511	32	1
10	0	0	0	0	536	524	0	513	32	1
11	0	0	0	0	504	519	0	514	32	1
12	0	0	0	0	517	515	0	509	32	1
13	0	0	0	0	527	512	0	510	31	1
14	0	0	0	0	504	511	0	508	31	1
15	0	0	0	0	506	506	0	515	31	1
0	0	0	0	0	515	500	0	515	31	1
1	0	0	0	0	505	498	0	514	31	1
2	0	0	0	0	513	499	0	514	32	1
3	0	0	0	0	517	497	0	513	32	1
4	0	0	0	0	519	499	0	513	32	1
5	0	0	0	0	514	503	0	511	32	1
6	0	0	0	0	504	501	0	510	31	1
7	0	0	0	0	532	500	0	512	32	1
8	0	0	0	0	508	502	0	511	31	1
9	0	0	0	0	518	503	0	513	31	1
10	0	0	0	0	513	504	0	511	32	1
11	0	0	0	0	524	502	0	508	32	1
12	0	0	0	0	512	505	0	513	32	1
13	0	0	0	0	517	506	0	516	32	1
14	0	0	0	0	519	510	0	518	32	1
15	0	0	0	0	511	510	0	514	32	1
0	0	0	0	0	499	514	0	513	32	1
1	0	0	0	0	557	511	0	523	32	1
2	0	0	0	0	503	511	0	509	32	1
3	0	0	0	0	492	510	0	515	32	1
4	0	0	0	0	536	510	0	512	32	1
5	0	0	0	0	512	508	0	508	32	1
6	0	0	0	0	512	509	0	511	32	1
7	0	0	0	0	511	508	0	511	32	1
8	0	0	0	0	517	508	0	513	32	1
9	0	0	0	0	526	509	0	511	32	1
10	0	0	0	0	514	512	0	514	32	1
11	0	0	0	0	511	515	0	511	32	1
12	0	0	0	0	519	516	0	508	32	1
13	0	0	0	0	523	515	0	513	32	1
14	0	0	0	0	504	518	0	512	32	1
15	0	0	0	0	521	522	0	509	33	1
0	0	0	0	0	511	522	0	514	32	1
1	0	0	0	0	522	522	0	510	32	1
2	0	0	0	0	508	523	0	513	31	1
3	0	0	0	0	544	521	0	515	32	1
4	0	0	0	0	505	522	0	509	31	1
5	0	0	0	0	514	520	0	510	31	1
6	0	0	0	0	516	524	0	513	31	1
7	0	0	0	0	512	524	0	514	31	1
8	0	0	0	0	522	519	0	516	32	1
9	0	0	0	0	511	523	0	515	32	1
10	0	0	0	0	529	522	0	515	31	1
11	0	0	0	0	504	523	0	514	32	1
12	0	0	0	0	521	521	0	513	31	1
13	0	0	0	0	521	522	0	513	32	1
14	0	0	0	0	506	521	0	510	31	1
15	0	0	0	0	511	518	0	513	32	1
0	0	0	0	0	511	521	0	516	32	1
1	0	0	0	0	521	522	0	513	32	1
2	0	0	0	0	509	524	0	512	32	1
3	0	0	0	0	521	521	0	512	32	1
4	0	0	0	0	520	525	0	513	31	1
5	0	0	0	0	517	523	0	513	31	1
6	0	0	0	0	512	523	0	512	31	1
7	0	0	0	0	511	524	0	511	31	1
8	0	0	0	0	517	523	0	512	31	1
9	0	0	0	0	515	524	0	515	31	1
10	0	0	0	0	526	519	0	509	31	1
11	0	0	0	0	510	519	0	513	32	1
12	0	0	0	0	529	524	0	520	32	1
13	0	0	0	0	505	518	0	513	32	1
14	0	0	0	0	511	517	0	513	31	1
15	0	0	0	0	521	516	0	512	31	1
0	0	0	0	0	507	518	0	515	31	1
1	0	0	0	0	508	513	0	516	31	1
2	0	0	0	0	519	517	0	513	31	1
3	0	0	0	0	515	512	0	512	31	1
4	0	0	0	0	505	515	0	512	31	1
5	0	0	0	0	519	516	0	512	31	1
6	0	0	0	0	514	518	0	509	31	1
7	0	0	0	0	504	520	0	507	31	1
8	0	0	0	0	529	520	0	519	31	1
9	0	0	0	0	517	525	0	512	31	1
10	0	0	0	0	509	527	0	515	31	1
11	0	0	0	0	517	523	0	513	31	1
12	0	0	0	0	523	525	0	514	31	1
13	0	0	0	0	517	521	0	512	31	1
14	0	0	0	0	519	526	0	508	31	1
15	0	0	0	0	512	524	0	516	31	1
0	0	0	0	0	516	522	0	514	31	1
1	0	0	0	0	512	520	0	510	31	1
2	0	0	0	0	518	523	0	512	31	1
3	0	0	0	0	519	520	0	511	31	1
4	0	0	0	0	511	517	0	512	31	1
5	0	0	0	0	508	518	0	508	31	1
6	0	0	0	0	509	516	0	510	31	1
7	0	0	0	0	508	517	0	513	31	1
8	0	0	0	0	523	509	0	511	31	1
9	0	0	0	0	515	511	0	509	31	1
10	0	0	0	0	527	511	0	510	31	1
11	0	0	0	0	506	512	0	510	31	1
12	0	0	0	0	542	513	0	508	31	1
13	0	0	0	0	498	510	0	512	31	1
14	0	0	0	0	510	511	0	510	31	1
15	0	0	0	0	513	511	0	516	31	1
0	0	0	0	0	517	512	0	510	31	1
1	0	0	0	0	521	512	0	511	31	1
2	0	0	0	0	513	510	0	515	31	1
3	0	0	0	0	549	510	0	510	31	1
4	0	0	0	0	508	507	0	512	31	1
5	0	0	0	0	508	510	0	514	31	1
6	0	0	0	0	517	509	0	506	31	1
7	0	0	0	0	514	506	0	510	31	1
8	0	0	0	0	514	509	0	508	31	1
9	0	0	0	0	519	510	0	513	31	1
10	0	0	0	0	512	511	0	519	31	1
11	0	0	0	0	508	511	0	510	32	1
12	0	0	0	0	516	510	0	513	31	1
13	0	0	0	0	514	511	0	511	31	1
14	0	0	0	0	526	512	0	509	31	1
15	0	0	0	0	517	514	0	513	31	1
0	0	0	0	0	519	512	0	514	31	1
1	0	0	0	0	516	511	0	510	31	1
2	0	0	0	0	519	514	0	513	31	1
3	0	0	0	0	514	515	0	513	31	1
4	0	0	0	0	512	519	0	510	31	1
5	0	0	0	0	521	516	0	514	30	1
6	0	0	0	0	523	516	0	512	31	1
7	0	0	0	0	512	515	0	515	31	1
8	0	0	0	0	518	517	0	514	31	1
9	0	0	0	0	507	514	0	508	30	1
10	0	0	0	0	511	516	0	508	31	1
11	0	0	0	0	520	516	0	509	31	1
12	0	0	0	0	517	517	0	513	31	1
13	0	0	0	0	516	516	0	508	31	1
14	0	0	0	0	508	516	0	506	31	1
15	0	0	0	0	518	514	0	513	31	1
0	0	0	0	0	518	518	0	511	31	1
1	0	0	0	0	507	516	0	511	31	1
2	0	0	0	0	532	515	0	512	31	1
3	0	0	0	0	495	517	0	513	31	1
4	0	0	0	0	532	515	0	515	31	1
5	0	0	0	0	522	519	0	513	31	1
6	0	0	0	0	539	515	0	509	31	1
7	0	0	0	0	512	519	0	511	31	1
8	0	0	0	0	521	519	0	517	31	1
9	0	0	0	0	519	519	0	515	31	1
10	0	0	0	0	515	522	0	512	31	1
11	0	0	0	0	525	521	0	511	31	1
12	0	0	0	0	518	520	0	511	31	1
13	0	0	0	0	519	523	0	510	31	1
14	0	0	0	0	526	516	0	512	31	1
15	0	0	0	0	512	519	0	516	31	1
0	0	0	0	0	526	519	0	514	31	1
1	0	0	0	0	505	517	0	515	31	1
2	0	0	0	0	512	523	0	512	31	1
3	0	0	0	0	502	518	0	512	31	1
4	0	0	0	0	513	519	0	510	31	1
5	0	0	0	0	529	519	0	514	31	1
6	0	0	0	0	519	519	0	508	31	1
7	0	0	0	0	516	520	0	510	31	1
8	0	0	0	0	521	520	0	515	32	1
9	0	0	0	0	519	518	0	507	30	1
10	0	0	0	0	510	520	0	510	31	1
11	0	0	0	0	523	514	0	511	31	1
12	0	0	0	0	504	519	0	513	31	1
13	0	0	0	0	539	520	0	513	31	1
14	0	0	0	0	507	519	0	519	31	1
15	0	0	0	0	504	519	0	510	32	1
0	0	0	0	0	514	516	0	511	30	1
1	0	0	0	0	532	517	0	508	31	1
2	0	0	0	0	525	519	0	511	31	1
3	0	0	0	0	505	517	0	510	31	1
4	0	0	0	0	527	519	0	510	32	1
5	0	0	0	0	512	519	0	513	30	1
6	0	0	0	0	511	516	0	509	31	1
7	0	0	0	0	507	515	0	508	31	1
8	0	0	0	0	517	517	0	511	31	1
9	0	0	0	0	513	518	0	510	31	1
10	0	0	0	0	515	516	0	515	30	1
11	0	0	0	0	520	517	0	516	31	1
12	0	0	0	0	518	518	0	513	31	1
13	0	0	0	0	501	517	0	508	31	1
14	0	0	0	0	523	519	0	509	31	1
15	0	0	0	0	510	517	0	506	31	1
0	0	0	0	0	514	516	0	512	31	1
1	0	0	0	0	514	520	0	516	31	1
2	0	0	0	0	517	520	0	514	31	1
3	0	0	0	0	507	520	0	513	31	1
4	0	0	0	0	508	519	0	512	31	1
5	0	0	0	0	520	517	0	514	31	1
6	0	0	0	0	513	518	0	508	31	1
7	0	0	0	0	532	520	0	513	31	1
8	0	0	0	0	499	519	0	512	31	1
9	0	0	0	0	520	519	0	512	31	1
10	0	0	0	0	509	516	0	507	31	1
11	0	0	0	0	529	519	0	505	31	1
12	0	0	0	0	529	517	0	509	31	1
13	0	0	0	0	513	519	0	512	31	1
14	0	0	0	0	519	513	0	516	31	1
15	0	0	0	0	509	513	0	513	31	1
0	0	0	0	0	526	518	0	513	31	1
1	0	0	0	0	509	512	0	514	31	1
2	0	0	0	0	512	512	0	514	31	1
3	0	0	0	0	523	515	0	513	31	1
4	0	0	0	0	524	515	0	514	31	1
5	0	0	0	0	508	513	0	511	31	1
6	0	0	0	0	514	510	0	513	31	1
7	0	0	0	0	522	514	0	512	31	1
8	0	0	0	0	519	510	0	506	31	1
9	0	0	0	0	510	510	0	510	31	1
10	0	0	0	0	519	511	0	509	31	1
11	0	0	0	0	510	511	0	509	31	1
12	0	0	0	0	516	507	0	513	31	1
13	0	0	0	0	516	512	0	514	31	1
14	0	0	0	0	510	510	0	517	31	1
15	0	0	0	0	510	509	0	511	32	1
0	0	0	0	0	507	509	0	518	31	1
1	0	0	0	0	536	508	0	523	31	1
2	0	0	0	0	511	507	0	513	31	1
3	0	0	0	0	533	507	0	512	31	1
4	0	0	0	0	508	505	0	513	31	1
5	0	0	0	0	505	505	0	513	31	1
6	0	0	0	0	515	509	0	513	31	1
7	0	0	0	0	513	503	0	512	32	1
8	0	0	0	0	514	505	0	513	31	1
9	0	0	0	0	508	509	0	510	31	1
10	0	0	0	0	496	507	0	520	31	1
11	0	0	0	0	533	509	0	512	32	1
12	0	0	0	0	503	505	0	510	31	1
13	0	0	0	0	502	507	0	510	31	1
14	0	0	0	0	520	510	0	516	31	1
15	0	0	0	0	521	507	0	512	31	1
0	0	0	0	0	516	511	0	511	31	1
1	0	0	0	0	527	510	0	512	31	1
2	0	0	0	0	512	507	0	514	31	1
3	0	0	0	0	517	509	0	511	32	1
4	0	0	0	0	528	506	0	510	31	1
5	0	0	0	0	516	508	0	513	31	1
6	0	0	0	0	500	514	0	510	31	1
7	0	0	0	0	512	511	0	509	32	1
8	0	0	0	0	529	509	0	509	31	1
9	0	0	0	0	504	513	0	513	31	1
10	0	0	0	0	508	514	0	510	31	1
11	0	0	0	0	511	512	0	512	32	1
12	0	0	0	0	534	512	0	514	31	1
13	0	0	0	0	519	510	0	511	31	1
14	0	0	0	0	503	511	0	518	31	1
15	0	0	0	0	517	513	0	515	32	1
0	0	0	0	0	511	512	0	519	31	1
1	0	0	0	0	512	509	0	524	31	1
2	0	0	0	0	510	514	0	510	31	1
3	0	0	0	0	515	511	0	528	32	1
4	0	0	0	0	515	510	0	516	31	1
5	0	0	0	0	523	514	0	518	31	1
6	0	0	0	0	513	514	0	512	31	1
7	0	0	0	0	525	510	0	511	32	1
8	0	0	0	0	515	512	0	515	31	1
9	0	0	0	0	501	512	0	510	31	1
10	0	0	0	0	531	511	0	509	31	1
11	0	0	0	0	498	510	0	514	32	1
12	0	0	0	0	504	511	0	516	31	1
13	0	0	0	0	518	511	0	513	31	1
14	0	0	0	0	516	512	0	509	31	1
15	0	0	0	0	505	508	0	515	32	1
0	0	0	0	0	519	508	0	514	31	1
1	0	0	0	0	518	510	0	515	31	1
2	0	0	0	0	510	513	0	514	31	1
3	0	0	0	0	537	511	0	527	31	1
4	0	0	0	0	509	511	0	513	31	1
5	0	0	0	0	537	513	0	505	31	1
6	0	0	0	0	508	511	0	515	31	1
7	0	0	0	0	522	512	0	509	31	1
8	0	0	0	0	510	510	0	515	31	1
9	0	0	0	0	508	515	0	514	31	1
10	0	0	0	0	530	510	0	510	31	1
11	0	0	0	0	535	511	0	525	31	1
12	0	0	0	0	510	510	0	517	31	1
13	0	0	0	0	516	511	0	510	31	1
14	0	0	0	0	517	514	0	513	31	1
15	0	0	0	0	541	510	0	515	32	1
0	0	0	0	0	508	511	0	515	31	1
1	0	0	0	0	516	515	0	516	31	1
2	0	0	0	0	522	513	0	510	31	1
3	0	0	0	0	543	513	0	510	31	1
4	0	0	0	0	512	512	0	512	31	1
5	0	0	0	0	517	513	0	512	31	1
6	0	0	0	0	504	514	0	513	31	1
7	0	0	0	0	515	515	0	513	31	1
8	0	0	0	0	504	515	0	513	31	1
9	0	0	0	0	525	516	0	513	31	1
10	0	0	0	0	518	519	0	514	31	1
11	0	0	0	0	510	517	0	511	32	1
12	0	0	0	0	506	515	0	512	31	1
13	0	0	0	0	502	516	0	513	31	1
14	0	0	0	0	515	520	0	515	31	1
15	0	0	0	0	511	517	0	517	31	1
0	0	0	0	0	514	519	0	515	31	1
1	0	0	0	0	525	521	0	517	31	1
2	0	0	0	0	496	518	0	511	31	1
3	0	0	0	0	539	516	0	512	32	1
4	0	0	0	0	511	516	0	511	31	1
5	0	0	0	0	501	519	0	526	31	1
6	0	0	0	0	520	518	0	512	31	1
7	0	0	0	0	517	518	0	513	32	1
8	0	0	0	0	500	518	0	513	31	1
9	0	0	0	0	506	516	0	512	31	1
10	0	0	0	0	520	516	0	514	31	1
11	0	0	0	0	508	520	0	512	32	1
12	0	0	0	0	517	517	0	513	31	1
13	0	0	0	0	519	518	0	508	31	1
14	0	0	0	0	508	516	0	512	31	1
15	0	0	0	0	519	518	0	513	31	1
0	0	0	0	0	518	519	0	513	31	1
1	0	0	0	0	505	519	0	513	31	1
2	0	0	0	0	500	517	0	513	31	1
3	0	0	0	0	513	516	0	510	32	1
4	0	0	0	0	508	518	0	513	31	1
5	0	0	0	0	531	516	0	515	31	1
6	0	0	0	0	508	515	0	510	31	1
7	0	0	0	0	503	516	0	510	32	1
8	0	0	0	0	523	514	0	513	31	1
9	0	0	0	0	512	516	0	514	31	1
10	0	0	0	0	495	514	0	513	31	1
11	0	0	0	0	521	513	0	515	32	1
12	0	0	0	0	523	513	0	512	31	1
13	0	0	0	0	523	514	0	507	31	1
14	0	0	0	0	511	514	0	516	31	1
15	0	0	0	0	523	512	0	512	31	1
0	0	0	0	0	516	512	0	513	31	1
1	0	0	0	0	524	513	0	514	31	1
2	0	0	0	0	524	514	0	518	31	1
3	0	0	0	0	511	515	0	516	32	1
4	0	0	0	0	513	515	0	510	31	1
5	0	0	0	0	518	512	0	515	31	1
6	0	0	0	0	519	512	0	515	31	1
7	0	0	0	0	524	513	0	508	32	1
8	0	0	0	0	513	513	0	511	31	1
9	0	0	0	0	525	513	0	512	31	1
10	0	0	0	0	513	514	0	510	31	1
11	0	0	0	0	518	517	0	511	31	1
12	0	0	0	0	523	516	0	511	31	1
13	0	0	0	0	519	516	0	515	31	1
14	0	0	0	0	500	515	0	518	31	1
15	0	0	0	0	519	517	0	512	31	1
0	0	0	0	0	512	518	0	512	31	1
1	0	0	0	0	506	519	0	509	31	1
2	0	0	0	0	511	519	0	510	31	1
3	0	0	0	0	514	518	0	516	31	1
4	0	0	0	0	509	520	0	516	31	1
5	0	0	0	0	511	518	0	514	31	1
6	0	0	0	0	528	520	0	512	31	1
7	0	0	0	0	526	519	0	511	32	1
8	0	0	0	0	499	520	0	511	31	1
9	0	0	0	0	545	523	0	509	31	1
10	0	0	0	0	502	522	0	511	31	1
11	0	0	0	0	522	519	0	511	31	1
12	0	0	0	0	504	520	0	512	31	1
13	0	0	0	0	516	522	0	505	31	1
14	0	0	0	0	512	520	0	509	31	1
15	0	0	0	0	517	524	0	510	32	1
0	0	0	0	0	516	521	0	512	31	1
1	0	0	0	0	503	520	0	513	31	1
2	0	0	0	0	524	522	0	516	31	1
3	0	0	0	0	520	521	0	516	32	1
4	0	0	0	0	520	521	0	511	31	1
5	0	0	0	0	516	522	0	512	31	1
6	0	0	0	0	504	521	0	512	31	1
7	0	0	0	0	528	521	0	511	31	1
8	0	0	0	0	513	522	0	506	31	1
9	0	0	0	0	523	517	0	510	31	1
10	0	0	0	0	514	516	0	513	31	1
11	0	0	0	0	517	520	0	512	31	1
12	0	0	0	0	523	522	0	512	31	1
13	0	0	0	0	515	518	0	506	31	1
14	0	0	0	0	515	522	0	511	31	1
15	0	0	0	0	507	519	0	506	32	1
0	0	0	0	0	520	520	0	525	31	1
1	0	0	0	0	518	519	0	513	31	1
2	0	0	0	0	508	520	0	511	31	1
3	0	0	0	0	527	520	0	509	31	1
4	0	0	0	0	519	519	0	512	31	1
5	0	0	0	0	517	519	0	511	31	1
6	0	0	0	0	532	520	0	510	31	1
7	0	0	0	0	519	516	0	512	32	1
8	0	0	0	0	511	518	0	510	31	1
9	0	0	0	0	526	517	0	507	31	1
10	0	0	0	0	516	519	0	513	31	1
11	0	0	0	0	508	515	0	511	32	1
12	0	0	0	0	528	517	0	512	31	1
13	0	0	0	0	512	516	0	512	31	1
14	0	0	0	0	526	513	0	515	31	1
15	0	0	0	0	524	509	0	515	32	1
0	0	0	0	0	505	509	0	513	31	1
1	0	0	0	0	518	510	0	512	31	1
2	0	0	0	0	508	510	0	512	31	1
3	0	0	0	0	515	510	0	512	32	1
4	0	0	0	0	523	510	0	514	31	1
5	0	0	0	0	513	511	0	510	31	1
6	0	0	0	0	511	511	0	510	31	1
7	0	0	0	0	534	510	0	512	32	1
8	0	0	0	0	508	509	0	512	31	1
9	0	0	0	0	518	510	0	509	31	1
10	0	0	0	0	498	508	0	514	31	1
11	0	0	0	0	523	504	0	510	32	1
12	0	0	0	0	515	507	0	511	31	1
13	0	0	0	0	524	512	0	512	31	1
14	0	0	0	0	510	511	0	513	31	1
15	0	0	0	0	520	510	0	508	32	1
0	0	0	0	0	516	510	0	514	31	1
1	0	0	0	0	515	510	0	513	31	1
2	0	0	0	0	522	513	0	515	31	1
3	0	0	0	0	511	508	0	511	32	1
4	0	0	0	0	513	511	0	505	31	1
5	0	0	0	0	518	510	0	511	31	1
6	0	0	0	0	512	510	0	512	31	1
7	0	0	0	0	521	512	0	512	32	1
8	0	0	0	0	513	515	0	512	31	1
9	0	0	0	0	521	514	0	516	31	1
10	0	0	0	0	515	515	0	512	31	1
11	0	0	0	0	510	511	0	513	32	1
12	0	0	0	0	523	516	0	512	31	1
13	0	0	0	0	514	516	0	513	31	1
14	0	0	0	0	518	519	0	507	31	1
15	0	0	0	0	512	518	0	514	32	1
0	0	0	0	0	516	518	0	515	31	1
1	0	0	0	0	520	519	0	513	31	1
2	0	0	0	0	504	523	0	508	31	1
3	0	0	0	0	536	519	0	511	32	1
4	0	0	0	0	509	524	0	514	31	1
5	0	0	0	0	510	522	0	514	31	1
6	0	0	0	0	516	523	0	511	31	1
7	0	0	0	0	506	523	0	511	32	1
8	0	0	0	0	517	529	0	510	31	1
9	0	0	0	0	515	524	0	511	31	1
10	0	0	0	0	527	525	0	518	31	1
11	0	0	0	0	514	525	0	512	32	1
12	0	0	0	0	511	530	0	515	31	1
13	0	0	0	0	506	527	0	510	31	1
14	0	0	0	0	525	527	0	512	31	1
15	0	0	0	0	510	524	0	513	32	1
0	0	0	0	0	520	526	0	511	31	1
1	0	0	0	0	525	525	0	515	31	1
2	0	0	0	0	509	524	0	515	31	1
3	0	0	0	0	511	525	0	512	32	1
4	0	0	0	0	507	524	0	508	31	1
5	0	0	0	0	514	523	0	512	31	1
6	0	0	0	0	521	520	0	512	31	1
7	0	0	0	0	509	524	0	509	32	1
8	0	0	0	0	538	521	0	512	31	1
9	0	0	0	0	499	520	0	514	31	1
10	0	0	0	0	507	517	0	513	31	1
11	0	0	0	0	521	519	0	513	32	1
12	0	0	0	0	513	516	0	513	31	1
13	0	0	0	0	535	515	0	515	31	1
14	0	0	0	0	513	515	0	513	31	1
15	0	0	0	0	533	514	0	511	32	1
0	0	0	0	0	510	514	0	512	31	1
1	0	0	0	0	516	514	0	511	31	1
2	0	0	0	0	514	514	0	514	31	1
3	0	0	0	0	534	515	0	512	32	1
4	0	0	0	0	491	516	0	514	31	1
5	0	0	0	0	526	516	0	515	31	1
6	0	0	0	0	508	516	0	511	32	1
7	0	0	0	0	517	516	0	511	32	1
8	0	0	0	0	512	515	0	510	32	1
9	0	0	0	0	528	511	0	505	32	1
10	0	0	0	0	505	514	0	510	32	1
11	0	0	0	0	507	516	0	509	32	1
12	0	0	0	0	532	512	0	508	32	1
13	0	0	0	0	506	511	0	512	32	1
14	0	0	0	0	507	515	0	509	31	1
15	0	0	0	0	515	512	0	511	32	1
0	0	0	0	0	522	513	0	511	31	1
1	0	0	0	0	511	515	0	510	31	1
2	0	0	0	0	528	512	0	512	31	1
3	0	0	0	0	511	512	0	514	32	1
4	0	0	0	0	521	515	0	508	31	1
5	0	0	0	0	522	511	0	510	32	1
6	0	0	0	0	518	513	0	515	31	1
7	0	0	0	0	514	515	0	512	32	1
8	0	0	0	0	519	515	0	508	31	1
9	0	0	0	0	516	514	0	515	31	1
10	0	0	0	0	514	516	0	509	31	1
11	0	0	0	0	513	514	0	514	32	1
12	0	0	0	0	515	515	0	512	32	1
13	0	0	0	0	519	513	0	510	32	1
14	0	0	0	0	508	516	0	512	32	1
15	0	0	0	0	504	515	0	511	32	1
0	0	0	0	0	543	514	0	510	32	1
1	0	0	0	0	507	517	0	511	32	1
2	0	0	0	0	503	515	0	508	31	1
3	0	0	0	0	507	515	0	510	32	1
4	0	0	0	0	518	515	0	513	32	1
5	0	0	0	0	510	512	0	514	32	1
6	0	0	0	0	520	512	0	515	31	1
7	0	0	0	0	505	513	0	512	32	1
8	0	0	0	0	507	514	0	512	31	1
9	0	0	0	0	537	514	0	509	31	1
10	0	0	0	0	503	513	0	512	32	1
11	0	0	0	0	515	508	0	529	32	1
12	0	0	0	0	520	511	0	512	32	1
13	0	0	0	0	517	511	0	514	32	1
14	0	0	0	0	519	510	0	515	32	1
15	0	0	0	0	515	505	0	512	32	1
0	0	0	0	0	519	511	0	515	32	1
1	0	0	0	0	523	508	0	512	32	1
2	0	0	0	0	512	508	0	517	32	1
3	0	0	0	0	526	510	0	515	32	1
4	0	0	0	0	514	508	0	514	32	1
5	0	0	0	0	509	507	0	515	31	1
6	0	0	0	0	527	512	0	512	32	1
7	0	0	0	0	508	510	0	508	32	1
8	0	0	0	0	503	511	0	506	31	1
9	0	0	0	0	509	511	0	508	31	1
10	0	0	0	0	520	513	0	514	32	1
11	0	0	0	0	531	511	0	508	32	1
12	0	0	0	0	517	510	0	512	31	1
13	0	0	0	0	517	512	0	510	31	1
14	0	0	0	0	522	511	0	515	31	1
15	0	0	0	0	497	513	0	515	32	1
0	0	0	0	0	552	512	0	510	31	1
1	0	0	0	0	502	512	0	516	32	1
2	0	0	0	0	507	512	0	515	31	1
3	0	0	0	0	531	514	0	511	32	1
4	0	0	0	0	503	516	0	515	31	1
5	0	0	0	0	542	514	0	512	31	1
6	0	0	0	0	494	519	0	513	31	1
7	0	0	0	0	518	514	0	512	32	1
8	0	0	0	0	521	519	0	511	31	1
9	0	0	0	0	518	520	0	514	31	1
10	0	0	0	0	514	519	0	510	32	1
11	0	0	0	0	537	518	0	511	32	1
12	0	0	0	0	504	519	0	511	32	1
13	0	0	0	0	518	521	0	511	31	1
14	0	0	0	0	517	522	0	510	32	1
15	0	0	0	0	506	524	0	510	32	1
0	0	0	0	0	519	524	0	514	31	1
1	0	0	0	0	512	526	0	515	32	1
2	0	0	0	0	531	523	0	506	31	1
3	0	0	0	0	507	527	0	512	32	1
4	0	0	0	0	513	527	0	519	31	1
5	0	0	0	0	523	525	0	510	31	1
6	0	0	0	0	505	526	0	512	31	1
7	0	0	0	0	505	527	0	507	32	1
8	0	0	0	0	507	526	0	514	31	1
9	0	0	0	0	517	527	0	509	31	1
10	0	0	0	0	505	527	0	511	31	1
11	0	0	0	0	511	523	0	512	32	1
12	0	0	0	0	524	526	0	509	31	1
13	0	0	0	0	520	524	0	519	31	1
14	0	0	0	0	520	520	0	512	31	1
15	0	0	0	0	516	525	0	513	32	1
0	0	0	0	0	512	521	0	515	31	1
1	0	0	0	0	510	520	0	513	31	1
2	0	0	0	0	526	520	0	510	31	1
3	0	0	0	0	519	517	0	518	32	1
4	0	0	0	0	509	515	0	511	31	1
5	0	0	0	0	503	513	0	513	31	1
6	0	0	0	0	564	511	0	514	31	1
7	0	0	0	0	497	512	0	515	32	1
8	0	0	0	0	509	507	0	513	31	1
9	0	0	0	0	518	506	0	508	32	1
10	0	0	0	0	504	506	0	511	31	1
11	0	0	0	0	523	504	0	517	32	1
12	0	0	0	0	516	502	0	508	31	1
13	0	0	0	0	507	499	0	508	32	1
14	0	0	0	0	516	502	0	509	32	1
15	0	0	0	0	531	499	0	509	32	1
0	0	0	0	0	513	497	0	508	31	1
1	0	0	0	0	519	498	0	510	32	1
2	0	0	0	0	517	494	0	511	31	1
3	0	0	0	0	526	497	0	511	32	1
4	0	0	0	0	498	499	0	517	31	1
5	0	0	0	0	533	499	0	515	31	1
6	0	0	0	0	503	500	0	506	31	1
7	0	0	0	0	518	500	0	508	32	1
8	0	0	0	0	515	496	0	510	31	1
9	0	0	0	0	522	499	0	510	31	1
10	0	0	0	0	516	498	0	514	32	1
11	0	0	0	0	539	502	0	509	32	1
12	0	0	0	0	504	499	0	515	31	1
13	0	0	0	0	513	502	0	514	31	1
14	0	0	0	0	504	504	0	515	31	1
15	0	0	0	0	520	507	0	513	32	1
0	0	0	0	0	516	503	0	512	31	1
1	0	0	0	0	513	504	0	513	31	1
2	0	0	0	0	511	506	0	511	31	1
3	0	0	0	0	517	510	0	516	32	1
4	0	0	0	0	509	506	0	514	31	1
5	0	0	0	0	503	510	0	512	31	1
6	0	0	0	0	509	509	0	514	31	1
7	0	0	0	0	515	511	0	519	32	1
8	0	0	0	0	523	509	0	512	31	1
9	0	0	0	0	509	513	0	509	31	1
10	0	0	0	0	512	513	0	513	31	1
11	0	0	0	0	514	516	0	511	32	1
12	0	0	0	0	514	514	0	516	31	1
13	0	0	0	0	508	514	0	512	31	1
14	0	0	0	0	513	515	0	509	31	1
15	0	0	0	0	512	518	0	510	32	1
0	0	0	0	0	513	517	0	516	31	1
1	0	0	0	0	513	516	0	510	31	1
2	0	0	0	0	521	519	0	511	31	1
3	0	0	0	0	514	518	0	514	32	1
4	0	0	0	0	517	519	0	513	31	1
5	0	0	0	0	508	519	0	513	31	1
6	0	0	0	0	521	519	0	514	31	1
7	0	0	0	0	513	521	0	513	32	1
8	0	0	0	0	508	520	0	510	31	1
9	0	0	0	0	512	521	0	510	31	1
10	0	0	0	0	505	521	0	514	31	1
11	0	0	0	0	531	523	0	524	32	1
12	0	0	0	0	516	521	0	511	31	1
13	0	0	0	0	508	519	0	511	31	1
14	0	0	0	0	503	520	0	509	31	1
15	0	0	0	0	513	521	0	512	32	1
0	0	0	0	0	515	521	0	512	31	1
1	0	0	0	0	516	522	0	513	31	1
2	0	0	0	0	529	520	0	516	31	1
3	0	0	0	0	495	519	0	519	32	1
4	0	0	0	0	516	517	0	510	31	1
5	0	0	0	0	525	518	0	508	31	1
6	0	0	0	0	511	519	0	511	31	1
7	0	0	0	0	512	519	0	510	32	1
8	0	0	0	0	515	518	0	511	31	1
9	0	0	0	0	517	520	0	511	31	1
10	0	0	0	0	518	518	0	512	31	1
11	0	0	0	0	511	518	0	512	32	1
12	0	0	0	0	517	519	0	513	31	1
13	0	0	0	0	520	518	0	513	31	1
14	0	0	0	0	529	519	0	513	31	1
15	0	0	0	0	499	520	0	513	32	1
0	0	0	0	0	514	518	0	512	31	1
1	0	0	0	0	513	521	0	512	31	1
2	0	0	0	0	514	519	0	509	31	1
3	0	0	0	0	510	518	0	516	32	1
4	0	0	0	0	522	515	0	516	31	1
5	0	0	0	0	521	519	0	513	31	1
6	0	0	0	0	514	518	0	508	31	1
7	0	0	0	0	530	516	0	509	32	1
8	0	0	0	0	509	517	0	510	31	1
9	0	0	0	0	504	519	0	516	31	1
10	0	0	0	0	530	516	0	510	31	1
11	0	0	0	0	524	515	0	509	32	1
12	0	0	0	0	505	519	0	510	31	1
13	0	0	0	0	521	517	0	512	31	1
14	0	0	0	0	522	515	0	514	31	1
15	0	0	0	0	511	515	0	511	32	1
0	0	0	0	0	515	518	0	511	31	1
1	0	0	0	0	519	516	0	512	31	1
2	0	0	0	0	504	518	0	511	31	1
3	0	0	0	0	514	517	0	512	32	1
4	0	0	0	0	517	519	0	519	31	1
5	0	0	0	0	511	514	0	514	31	1
6	0	0	0	0	519	517	0	511	31	1
7	0	0	0	0	526	518	0	514	32	1
8	0	0	0	0	512	519	0	515	31	1
9	0	0	0	0	518	517	0	517	31	1
10	0	0	0	0	511	517	0	514	31	1
11	0	0	0	0	519	521	0	509	32	1
12	0	0	0	0	515	519	0	511	31	1
13	0	0	0	0	520	520	0	509	31	1
14	0	0	0	0	514	519	0	512	31	1
15	0	0	0	0	523	519	0	513	32	1
0	0	0	0	0	513	518	0	508	31	1
1	0	0	0	0	513	515	0	514	31	1
2	0	0	0	0	535	515	0	512	31	1
3	0	0	0	0	510	516	0	516	32	1
4	0	0	0	0	527	519	0	511	31	1
5	0	0	0	0	515	520	0	510	31	1
6	0	0	0	0	507	520	0	514	31	1
7	0	0	0	0	502	517	0	512	32	1
8	0	0	0	0	511	518	0	514	31	1
9	0	0	0	0	519	519	0	505	31	1
10	0	0	0	0	516	514	0	510	31	1
11	0	0	0	0	511	516	0	514	32	1
12	0	0	0	0	510	515	0	517	31	1
13	0	0	0	0	528	517	0	515	31	1
14	0	0	0	0	516	516	0	512	31	1
15	0	0	0	0	510	516	0	520	32	1
0	0	0	0	0	510	518	0	513	31	1
1	0	0	0	0	512	519	0	507	31	1
2	0	0	0	0	516	514	0	518	31	1
3	0	0	0	0	514	513	0	512	32	1
4	0	0	0	0	525	515	0	512	31	1
5	0	0	0	0	516	514	0	512	31	1
6	0	0	0	0	513	517	0	515	31	1
7	0	0	0	0	533	515	0	510	32	1
8	0	0	0	0	509	512	0	511	31	1
9	0	0	0	0	531	518	0	513	31	1
10	0	0	0	0	515	516	0	517	31	1
11	0	0	0	0	521	519	0	515	32	1
12	0	0	0	0	513	517	0	511	31	1
13	0	0	0	0	513	516	0	516	31	1
14	0	0	0	0	518	516	0	514	31	1
15	0	0	0	0	524	517	0	513	32	1
0	0	0	0	0	506	513	0	510	31	1
1	0	0	0	0	522	516	0	518	31	1
2	0	0	0	0	504	514	0	511	31	1
3	0	0	0	0	531	511	0	515	32	1
4	0	0	0	0	499	517	0	513	31	1
5	0	0	0	0	522	518	0	515	31	1
6	0	0	0	0	528	515	0	512	31	1
7	0	0	0	0	508	515	0	517	32	1
8	0	0	0	0	507	518	0	514	31	1
9	0	0	0	0	522	513	0	510	31	1
10	0	0	0	0	528	513	0	515	31	1
11	0	0	0	0	510	513	0	510	32	1
12	0	0	0	0	521	511	0	515	31	1
13	0	0	0	0	507	515	0	515	31	1
14	0	0	0	0	523	515	0	511	31	1
15	0	0	0	0	510	514	0	513	32	1
0	0	0	0	0	515	514	0	516	31	1
1	0	0	0	0	533	516	0	512	31	1
2	0	0	0	0	515	516	0	503	31	1
3	0	0	0	0	515	518	0	513	32	1
4	0	0	0	0	510	519	0	511	31	1
5	0	0	0	0	517	517	0	509	31	1
6	0	0	0	0	519	518	0	512	31	1
7	0	0	0	0	523	516	0	512	32	1
8	0	0	0	0	502	517	0	509	31	1
9	0	0	0	0	520	518	0	513	32	1
10	0	0	0	0	524	519	0	512	31	1
11	0	0	0	0	505	518	0	507	32	1
12	0	0	0	0	510	516	0	515	31	1
13	0	0	0	0	529	519	0	515	31	1
14	0	0	0	0	518	517	0	509	31	1
15	0	0	0	0	506	517	0	508	32	1
0	0	0	0	0	522	516	0	512	31	1
1	0	0	0	0	515	514	0	512	31	1
2	0	0	0	0	508	518	0	513	31	1
3	0	0	0	0	516	519	0	514	32	1
4	0	0	0	0	511	520	0	515	31	1
5	0	0	0	0	513	516	0	511	31	1
6	0	0	0	0	514	516	0	514	31	1
7	0	0	0	0	515	517	0	508	32	1
8	0	0	0	0	521	516	0	517	31	1
9	0	0	0	0	522	513	0	513	31	1
10	0	0	0	0	524	514	0	510	31	1
11	0	0	0	0	504	513	0	508	32	1
12	0	0	0	0	539	514	0	512	31	1
13	0	0	0	0	509	516	0	516	31	1
14	0	0	0	0	505	515	0	513	31	1
15	0	0	0	0	520	515	0	516	32	1
0	0	0	0	0	514	510	0	512	31	1
1	0	0	0	0	521	511	0	508	31	1
2	0	0	0	0	509	511	0	511	31	1
3	0	0	0	0	521	513	0	512	32	1
4	0	0	0	0	518	513	0	515	31	1
5	0	0	0	0	517	513	0	506	31	1
6	0	0	0	0	513	515	0	509	31	1
7	0	0	0	0	517	515	0	513	32	1
8	0	0	0	0	512	513	0	513	31	1
9	0	0	0	0	519	510	0	518	31	1
10	0	0	0	0	516	512	0	511	31	1
11	0	0	0	0	517	511	0	513	32	1
12	0	0	0	0	527	514	0	509	31	1
13	0	0	0	0	507	511	0	512	31	1
14	0	0	0	0	530	514	0	511	31	1
15	0	0	0	0	505	512	0	514	32	1
0	0	0	0	0	509	511	0	513	31	1
1	0	0	0	0	518	511	0	510	31	1
2	0	0	0	0	504	511	0	513	31	1
3	0	0	0	0	513	510	0	515	32	1
4	0	0	0	0	518	513	0	519	31	1
5	0	0	0	0	512	515	0	519	31	1
6	0	0	0	0	499	512	0	512	31	1
7	0	0	0	0	520	514	0	515	32	1
8	0	0	0	0	511	513	0	513	31	1
9	0	0	0	0	526	512	0	510	31	1
10	0	0	0	0	503	513	0	510	31	1
11	0	0	0	0	526	515	0	512	32	1
12	0	0	0	0	502	514	0	512	31	1
13	0	0	0	0	517	510	0	510	31	1
14	0	0	0	0	521	511	0	512	31	1
15	0	0	0	0	521	514	0	515	32	1
0	0	0	0	0	505	511	0	513	31	1
1	0	0	0	0	523	513	0	514	31	1
2	0	0	0	0	505	514	0	511	31	1
3	0	0	0	0	515	512	0	515	32	1
4	0	0	0	0	526	512	0	512	31	1
5	0	0	0	0	502	513	0	511	31	1
6	0	0	0	0	516	515	0	511	32	1
7	0	0	0	0	520	514	0	514	32	1
8	0	0	0	0	509	516	0	512	31	1
9	0	0	0	0	505	513	0	514	31	1
10	0	0	0	0	522	513	0	508	31	1
11	0	0	0	0	515	512	0	512	32	1
12	0	0	0	0	506	513	0	511	31	1
13	0	0	0	0	519	514	0	512	31	1
14	0	0	0	0	511	513	0	530	31	1
15	0	0	0	0	515	515	0	513	32	1
0	0	0	0	0	518	518	0	513	31	1
1	0	0	0	0	525	520	0	514	31	1
2	0	0	0	0	510	516	0	507	31	1
3	0	0	0	0	510	517	0	512	32	1
4	0	0	0	0	516	512	0	513	31	1
5	0	0	0	0	512	513	0	512	31	1
6	0	0	0	0	509	514	0	512	31	1
7	0	0	0	0	516	516	0	515	32	1
8	0	0	0	0	520	517	0	512	31	1
9	0	0	0	0	510	517	0	517	31	1
10	0	0	0	0	530	516	0	507	31	1
11	0	0	0	0	526	512	0	510	32	1
12	0	0	0	0	529	512	0	513	31	1
13	0	0	0	0	515	517	0	508	31	1
14	0	0	0	0	508	518	0	513	31	1
15	0	0	0	0	518	519	0	509	32	1
0	0	0	0	0	514	517	0	513	31	1
1	0	0	0	0	515	516	0	513	31	1
2	0	0	0	0	533	515	0	515	31	1
3	0	0	0	0	502	518	0	514	32	1
4	0	0	0	0	514	514	0	514	31	1
5	0	0	0	0	512	515	0	515	31	1
6	0	0	0	0	519	515	0	511	31	1
7	0	0	0	0	506	518	0	514	32	1
8	0	0	0	0	512	519	0	513	31	1
9	0	0	0	0	519	519	0	510	31	1
10	0	0	0	0	524	517	0	524	31	1
11	0	0	0	0	508	517	0	507	32	1
12	0	0	0	0	518	516	0	512	31	1
13	0	0	0	0	512	518	0	511	31	1
14	0	0	0	0	525	518	0	513	31	1
15	0	0	0	0	519	515	0	519	32	1
0	0	0	0	0	504	517	0	515	31	1
1	0	0	0	0	521	518	0	513	31	1
2	0	0	0	0	520	518	0	515	31	1
3	0	0	0	0	502	516	0	513	32	1
4	0	0	0	0	522	513	0	518	31	1
5	0	0	0	0	524	515	0	515	31	1
6	0	0	0	0	505	520	0	515	31	1
7	0	0	0	0	524	515	0	511	32	1
8	0	0	0	0	516	516	0	510	31	1
9	0	0	0	0	502	515	0	512	31	1
10	0	0	0	0	516	518	0	509	31	1
11	0	0	0	0	518	516	0	514	32	1
12	0	0	0	0	523	515	0	519	31	1
13	0	0	0	0	504	516	0	519	31	1
14	0	0	0	0	518	515	0	512	31	1
15	0	0	0	0	505	512	0	512	32	1
0	0	0	0	0	513	513	0	522	31	1
1	0	0	0	0	532	516	0	509	31	1
2	0	0	0	0	510	514	0	510	31	1
3	0	0	0	0	520	512	0	510	32	1
4	0	0	0	0	529	515	0	509	31	1
5	0	0	0	0	511	515	0	510	31	1
6	0	0	0	0	527	511	0	509	31	1
7	0	0	0	0	513	510	0	506	32	1
8	0	0	0	0	519	511	0	512	31	1
9	0	0	0	0	521	511	0	514	31	1
10	0	0	0	0	509	511	0	511	31	1
11	0	0	0	0	522	508	0	530	32	1
12	0	0	0	0	514	512	0	512	31	1
13	0	0	0	0	520	513	0	511	31	1
14	0	0	0	0	499	509	0	511	31	1
15	0	0	0	0	508	509	0	513	32	1
0	0	0	0	0	513	512	0	510	31	1
1	0	0	0	0	521	514	0	515	31	1
2	0	0	0	0	529	513	0	514	31	1
3	0	0	0	0	506	510	0	516	32	1
4	0	0	0	0	506	508	0	519	31	1
5	0	0	0	0	522	511	0	512	31	1
6	0	0	0	0	514	510	0	507	31	1
7	0	0	0	0	520	511	0	514	32	1
8	0	0	0	0	520	513	0	512	31	1
9	0	0	0	0	521	512	0	513	31	1
10	0	0	0	0	519	511	0	509	31	1
11	0	0	0	0	505	513	0	511	32	1
12	0	0	0	0	527	514	0	512	31	1
13	0	0	0	0	531	515	0	514	31	1
14	0	0	0	0	517	513	0	515	31	1
15	0	0	0	0	522	514	0	510	32	1
0	0	0	0	0	524	514	0	510	31	1
1	0	0	0	0	507	514	0	511	31	1
2	0	0	0	0	515	516	0	512	31	1
3	0	0	0	0	520	515	0	509	32	1
4	0	0	0	0	528	514	0	512	31	1
5	0	0	0	0	511	513	0	511	31	1
6	0	0	0	0	497	513	0	515	31	1
7	0	0	0	0	525	515	0	512	32	1
8	0	0	0	0	505	511	0	512	31	1
9	0	0	0	0	528	513	0	516	31	1
10	0	0	0	0	514	516	0	513	31	1
11	0	0	0	0	515	515	0	516	32	1
12	0	0	0	0	511	517	0	515	31	1
13	0	0	0	0	521	512	0	510	31	1
14	0	0	0	0	513	515	0	512	31	1
15	0	0	0	0	516	514	0	516	32	1
0	0	0	0	0	512	518	0	515	31	1
1	0	0	0	0	519	515	0	515	31	1
2	0	0	0	0	516	514	0	513	31	1
3	0	0	0	0	512	516	0	514	32	1
4	0	0	0	0	519	517	0	514	31	1
5	0	0	0	0	507	512	0	516	31	1
6	0	0	0	0	513	514	0	512	31	1
7	0	0	0	0	516	515	0	512	32	1
8	0	0	0	0	503	516	0	509	31	1
9	0	0	0	0	513	515	0	513	31	1
10	0	0	0	0	522	515	0	511	31	1
11	0	0	0	0	527	515	0	511	32	1
12	0	0	0	0	508	514	0	512	31	1
13	0	0	0	0	517	515	0	510	31	1
14	0	0	0	0	508	515	0	519	31	1
15	0	0	0	0	519	516	0	512	32	1
0	0	0	0	0	521	517	0	512	31	1
1	0	0	0	0	505	511	0	511	31	1
2	0	0	0	0	514	514	0	510	31	1
3	0	0	0	0	508	511	0	515	32	1
4	0	0	0	0	532	515	0	511	31	1
5	0	0	0	0	515	514	0	511	31	1
6	0	0	0	0	518	515	0	509	31	1
7	0	0	0	0	511	514	0	511	32	1
8	0	0	0	0	508	516	0	514	31	1
9	0	0	0	0	524	517	0	511	31	1
10	0	0	0	0	517	518	0	515	31	1
11	0	0	0	0	510	516	0	511	32	1
12	0	0	0	0	519	515	0	508	31	1
13	0	0	0	0	536	516	0	513	31	1
14	0	0	0	0	517	517	0	511	31	1
15	0	0	0	0	512	515	0	515	32	1
0	0	0	0	0	520	518	0	511	31	1
